-0.185
-0.215
-0.215
-0.245
-0.205
-0.195
-0.155
-0.165
-0.165
-0.175
-0.215
-0.185
-0.165
-0.165
-0.165
-0.145
-0.155
-0.185
-0.215
-0.175
-0.165
-0.155
-0.155
-0.155
-0.165
-0.185
-0.165
-0.175
-0.185
-0.165
-0.155
-0.165
-0.165
-0.165
-0.165
-0.155
-0.175
-0.185
-0.165
-0.175
-0.155
-0.185
-0.165
-0.165
-0.175
-0.175
-0.175
-0.175
-0.165
-0.175
-0.185
-0.165
-0.175
-0.145
-0.155
-0.145
-0.105
-0.065
-0.055
-0.035
0.025
0.045
0.025
0.025
-0.035
-0.095
-0.125
-0.125
-0.105
-0.105
-0.105
-0.065
-0.035
0.305
0.865
1.005
0.055
-0.395
-0.325
-0.105
-0.055
-0.065
-0.065
-0.075
-0.055
-0.055
-0.065
-0.045
-0.035
-0.055
-0.045
-0.045
-0.025
-0.025
-0.015
-0.025
-0.015
0.005
0.015
0.035
0.035
0.055
0.085
0.115
0.115
0.145
0.165
0.175
0.195
0.225
0.225
0.235
0.215
0.185
0.145
0.085
0.025
-0.025
-0.075
-0.105
-0.145
-0.145
-0.155
-0.165
-0.175
-0.175
-0.155
-0.145
-0.145
-0.165
-0.145
-0.145
-0.135
-0.135
-0.145
-0.145
-0.145
-0.155
-0.155
-0.185
-0.175
-0.165
-0.165
-0.185
-0.165
-0.185
-0.165
-0.175
-0.185
-0.185
-0.195
-0.185
-0.185
-0.175
-0.185
-0.205
-0.175
-0.185
-0.185
-0.155
-0.175
-0.185
-0.175
-0.185
-0.175
-0.185
-0.175
-0.165
-0.155
-0.185
-0.195
-0.175
-0.165
-0.185
-0.175
-0.155
-0.165
-0.155
-0.165
-0.185
-0.175
-0.135
-0.125
-0.075
-0.055
-0.035
0.025
0.005
0.005
-0.025
-0.105
-0.145
-0.185
-0.185
-0.165
-0.195
-0.135
-0.125
-0.065
0.595
1.365
0.965
-0.315
-0.665
-0.435
-0.175
-0.135
-0.135
-0.165
-0.175
-0.175
-0.175
-0.145
-0.155
-0.155
-0.115
-0.115
-0.125
-0.105
-0.115
-0.105
-0.075
-0.065
-0.055
-0.025
-0.015
-0.025
-0.015
0.035
0.045
0.055
0.115
0.115
0.135
0.155
0.145
0.155
0.155
0.115
0.095
0.035
-0.015
-0.095
-0.145
-0.165
-0.195
-0.215
-0.215
-0.235
-0.235
-0.225
-0.235
-0.215
-0.215
-0.225
-0.205
-0.215
-0.195
-0.205
-0.215
-0.185
-0.205
-0.205
-0.205
-0.205
-0.215
-0.215
-0.245
-0.225
-0.225
-0.225
-0.215
-0.225
-0.215
-0.235
-0.245
-0.245
-0.225
-0.225
-0.235
-0.215
-0.235
-0.235
-0.245
-0.235
-0.245
-0.245
-0.215
-0.235
-0.245
-0.235
-0.245
-0.245
-0.225
-0.235
-0.205
-0.225
-0.235
-0.205
-0.225
-0.215
-0.225
-0.215
-0.205
-0.165
-0.135
-0.115
-0.085
-0.055
-0.005
-0.025
-0.015
-0.075
-0.135
-0.165
-0.195
-0.195
-0.175
-0.185
-0.155
-0.105
0.115
0.755
1.325
0.265
-0.605
-0.545
-0.285
-0.165
-0.175
-0.175
-0.185
-0.175
-0.165
-0.165
-0.145
-0.155
-0.135
-0.145
-0.155
-0.125
-0.125
-0.115
-0.105
-0.095
-0.095
-0.065
-0.055
-0.035
-0.025
0.005
0.035
0.055
0.075
0.095
0.095
0.135
0.155
0.165
0.175
0.155
0.125
0.075
0.005
-0.045
-0.095
-0.135
-0.155
-0.185
-0.205
-0.195
-0.225
-0.215
-0.195
-0.195
-0.175
-0.185
-0.195
-0.175
-0.195
-0.185
-0.165
-0.175
-0.165
-0.175
-0.185
-0.185
-0.195
-0.185
-0.185
-0.195
-0.195
-0.205
-0.205
-0.195
-0.225
-0.195
-0.205
-0.205
-0.195
-0.205
-0.195
-0.205
-0.215
-0.185
-0.205
-0.215
-0.165
-0.205
-0.195
-0.165
-0.215
-0.205
-0.185
-0.185
-0.175
-0.185
-0.175
-0.185
-0.185
-0.165
-0.185
-0.185
-0.165
-0.175
-0.165
-0.175
-0.145
-0.105
-0.055
-0.065
-0.015
0.025
0.015
0.005
-0.055
-0.085
-0.145
-0.185
-0.155
-0.155
-0.165
-0.135
-0.115
0.095
0.815
1.595
0.585
-0.565
-0.595
-0.275
-0.145
-0.145
-0.135
-0.135
-0.135
-0.145
-0.155
-0.105
-0.135
-0.125
-0.115
-0.125
-0.075
-0.085
-0.095
-0.055
-0.065
-0.035
-0.005
-0.005
0.035
0.045
0.045
0.085
0.105
0.145
0.175
0.185
0.215
0.245
0.245
0.255
0.235
0.205
0.185
0.145
0.085
0.015
-0.065
-0.085
-0.115
-0.125
-0.165
-0.155
-0.155
-0.155
-0.165
-0.155
-0.165
-0.135
-0.145
-0.145
-0.115
-0.125
-0.125
-0.125
-0.135
-0.135
-0.125
-0.135
-0.135
-0.125
-0.135
-0.155
-0.155
-0.155
-0.165
-0.165
-0.135
-0.135
-0.155
-0.165
-0.165
-0.135
-0.155
-0.145
-0.125
-0.145
-0.135
-0.165
-0.185
-0.115
-0.135
-0.155
-0.135
-0.195
-0.115
-0.095
-0.135
-0.105
-0.055
-0.085
-0.065
-0.055
-0.055
-0.065
-0.055
-0.055
-0.005
0.025
0.075
0.055
0.105
0.155
0.135
0.145
0.075
0.015
-0.035
-0.065
-0.025
-0.025
-0.055
-0.035
0.005
0.105
0.715
1.405
0.685
-0.355
-0.555
-0.305
-0.065
-0.065
-0.045
-0.055
-0.065
-0.075
-0.015
-0.035
-0.035
-0.025
-0.045
-0.025
-0.005
0.005
0.005
0.035
0.005
0.055
0.085
0.095
0.105
0.125
0.145
0.175
0.185
0.225
0.235
0.265
0.285
0.275
0.305
0.315
0.315
0.305
0.285
0.215
0.135
0.095
0.015
-0.005
-0.025
-0.085
-0.035
-0.075
-0.065
-0.065
-0.075
-0.055
-0.045
-0.045
-0.025
-0.025
-0.045
-0.045
-0.045
-0.025
-0.035
-0.055
-0.025
-0.035
-0.015
-0.035
-0.055
-0.065
-0.055
-0.055
-0.055
-0.035
-0.045
-0.045
-0.065
-0.065
-0.055
-0.035
-0.045
-0.035
-0.025
-0.015
-0.055
-0.035
-0.035
-0.055
-0.035
-0.025
-0.065
-0.045
-0.035
-0.025
-0.025
-0.055
-0.025
-0.035
-0.015
-0.035
-0.035
-0.025
-0.045
-0.045
-0.025
0.015
0.045
0.075
0.065
0.115
0.155
0.155
0.155
0.115
0.055
-0.005
-0.035
-0.025
-0.025
-0.025
0.005
0.025
0.065
0.685
1.375
1.295
-0.095
-0.505
-0.305
-0.015
0.015
-0.015
-0.035
-0.025
-0.005
-0.005
0.005
0.015
0.005
0.005
0.005
0.025
0.045
0.035
0.045
0.065
0.085
0.105
0.105
0.125
0.145
0.145
0.175
0.195
0.225
0.255
0.265
0.285
0.315
0.345
0.345
0.295
0.335
0.315
0.225
0.165
0.135
0.075
0.035
0.025
-0.025
-0.035
-0.065
-0.045
-0.035
-0.045
-0.035
-0.035
-0.035
-0.015
-0.005
0.005
-0.025
-0.005
-0.005
-0.005
-0.015
0.005
-0.075
-0.045
-0.025
-0.035
-0.015
-0.055
-0.045
-0.015
-0.075
-0.035
-0.025
-0.075
-0.055
-0.075
-0.055
-0.035
-0.045
-0.055
-0.055
-0.035
-0.085
-0.045
-0.035
-0.045
-0.055
-0.045
-0.045
-0.055
-0.085
-0.025
-0.025
-0.045
-0.055
-0.035
-0.035
-0.035
-0.045
-0.055
-0.045
-0.045
-0.025
-0.035
-0.045
0.005
0.065
0.055
0.085
0.185
0.125
0.125
0.085
0.035
-0.015
-0.065
-0.065
-0.035
-0.045
0.005
0.025
0.105
0.815
1.515
0.785
-0.375
-0.545
-0.215
-0.035
-0.015
-0.055
-0.035
-0.045
-0.065
-0.045
-0.045
-0.035
-0.025
-0.005
-0.035
-0.015
0.015
-0.005
0.025
0.035
0.045
0.075
0.065
0.095
0.135
0.145
0.175
0.195
0.205
0.255
0.265
0.275
0.295
0.295
0.315
0.305
0.265
0.205
0.155
0.115
0.035
-0.025
-0.055
-0.065
-0.095
-0.095
-0.115
-0.105
-0.105
-0.125
-0.105
-0.095
-0.085
-0.095
-0.085
-0.075
-0.075
-0.095
-0.095
-0.105
-0.095
-0.085
-0.105
-0.115
-0.115
-0.125
-0.125
-0.135
-0.135
-0.115
-0.115
-0.125
-0.135
-0.155
-0.145
-0.145
-0.135
-0.115
-0.125
-0.145
-0.135
-0.145
-0.125
-0.145
-0.145
-0.135
-0.135
-0.125
-0.125
-0.125
-0.115
-0.125
-0.135
-0.125
-0.115
-0.115
-0.115
-0.115
-0.105
-0.115
-0.115
-0.095
-0.085
-0.105
-0.105
-0.105
-0.075
-0.005
-0.015
0.015
0.095
0.105
0.075
0.055
-0.005
-0.065
-0.105
-0.085
-0.105
-0.085
-0.065
-0.055
0.005
0.535
1.235
1.195
-0.035
-0.555
-0.415
-0.145
-0.065
-0.095
-0.095
-0.065
-0.065
-0.065
-0.065
-0.105
-0.075
-0.065
-0.055
-0.025
-0.055
-0.045
-0.005
-0.005
0.005
0.015
0.035
0.065
0.055
0.095
0.105
0.115
0.155
0.165
0.205
0.225
0.235
0.265
0.255
0.225
0.225
0.195
0.135
0.095
0.035
-0.045
-0.085
-0.145
-0.135
-0.135
-0.145
-0.125
-0.115
-0.105
-0.125
-0.135
-0.105
-0.085
-0.095
-0.065
-0.065
-0.065
-0.085
-0.055
-0.055
-0.055
-0.065
-0.045
-0.065
-0.075
-0.065
-0.085
-0.085
-0.095
-0.105
-0.065
-0.075
-0.095
-0.095
-0.105
-0.115
-0.095
-0.095
-0.085
-0.105
-0.115
-0.105
-0.115
-0.115
-0.125
-0.105
-0.095
-0.105
-0.105
-0.095
-0.105
-0.095
-0.105
-0.115
-0.065
-0.095
-0.095
-0.095
-0.095
-0.075
-0.085
-0.095
-0.085
-0.025
0.015
0.015
0.045
0.105
0.085
0.095
0.025
-0.015
-0.065
-0.095
-0.125
-0.075
-0.095
-0.065
-0.025
0.125
0.855
1.625
0.805
-0.395
-0.545
-0.285
-0.065
-0.045
-0.095
-0.085
-0.115
-0.105
-0.055
-0.055
-0.055
-0.065
-0.045
-0.075
-0.055
-0.045
-0.035
-0.005
0.005
0.015
0.005
0.035
0.055
0.075
0.075
0.105
0.145
0.165
0.175
0.205
0.225
0.265
0.265
0.275
0.265
0.265
0.205
0.175
0.135
0.035
-0.015
-0.065
-0.085
-0.115
-0.145
-0.155
-0.135
-0.145
-0.135
-0.135
-0.135
-0.115
-0.115
-0.125
-0.125
-0.115
-0.095
-0.085
-0.085
-0.105
-0.125
-0.115
-0.115
-0.135
-0.135
-0.135
-0.125
-0.135
-0.165
-0.125
-0.155
-0.155
-0.145
-0.145
-0.125
-0.145
-0.135
-0.145
-0.175
-0.155
-0.135
-0.145
-0.135
-0.135
-0.145
-0.145
-0.165
-0.155
-0.155
-0.145
-0.125
-0.135
-0.145
-0.125
-0.135
-0.165
-0.135
-0.115
-0.105
-0.105
-0.145
-0.115
-0.155
-0.115
-0.095
-0.035
-0.045
-0.015
0.045
0.095
0.075
0.055
-0.005
-0.065
-0.095
-0.135
-0.125
-0.105
-0.135
-0.095
-0.065
0.045
0.775
1.495
0.855
-0.405
-0.605
-0.325
-0.085
-0.085
-0.105
-0.125
-0.095
-0.105
-0.105
-0.095
-0.075
-0.075
-0.055
-0.075
-0.065
-0.055
-0.035
-0.025
-0.005
-0.005
0.025
0.045
0.045
0.075
0.085
0.095
0.135
0.165
0.195
0.225
0.225
0.235
0.245
0.245
0.255
0.215
0.195
0.155
0.095
0.035
-0.015
-0.055
-0.095
-0.105
-0.125
-0.135
-0.145
-0.155
-0.155
-0.135
-0.125
-0.115
-0.115
-0.115
-0.115
-0.135
-0.135
-0.125
-0.125
-0.135
-0.135
-0.135
-0.145
-0.155
-0.175
-0.155
-0.145
-0.155
-0.145
-0.165
-0.165
-0.175
-0.205
-0.185
-0.175
-0.145
-0.155
-0.215
-0.165
-0.185
-0.145
-0.255
-0.075
-0.095
-0.125
-0.095
-0.135
-0.085
-0.085
-0.105
-0.095
-0.095
-0.085
-0.085
-0.065
-0.075
-0.085
-0.075
-0.105
-0.075
-0.065
-0.075
-0.065
-0.015
0.005
0.005
0.055
0.085
0.115
0.085
0.065
0.005
-0.105
-0.115
-0.105
-0.115
-0.105
-0.075
-0.085
-0.015
0.615
1.385
1.065
-0.275
-0.595
-0.385
-0.135
-0.095
-0.095
-0.105
-0.095
-0.105
-0.085
-0.075
-0.085
-0.075
-0.095
-0.095
-0.065
-0.055
-0.015
-0.015
-0.005
0.005
0.015
0.035
0.035
0.045
0.085
0.105
0.125
0.155
0.165
0.225
0.245
0.255
0.255
0.245
0.255
0.255
0.195
0.155
0.095
0.025
-0.025
-0.085
-0.105
-0.125
-0.135
-0.165
-0.125
-0.135
-0.105
-0.105
-0.145
-0.115
-0.105
-0.105
-0.115
-0.115
-0.095
-0.105
-0.095
-0.105
-0.105
-0.105
-0.135
-0.135
-0.145
-0.115
-0.095
-0.115
-0.125
-0.125
-0.125
-0.125
-0.135
-0.125
-0.125
-0.135
-0.125
-0.105
-0.115
-0.115
-0.105
-0.105
-0.115
-0.115
-0.125
-0.105
-0.115
-0.105
-0.085
-0.085
-0.095
-0.105
-0.105
-0.095
-0.095
-0.095
-0.085
-0.075
-0.085
-0.075
-0.055
-0.015
-0.015
0.015
0.065
0.085
0.045
0.015
-0.025
-0.075
-0.115
-0.135
-0.105
-0.115
-0.105
-0.105
-0.085
0.385
1.055
1.065
-0.045
-0.555
-0.435
-0.185
-0.165
-0.155
-0.145
-0.165
-0.155
-0.145
-0.145
-0.145
-0.155
-0.125
-0.125
-0.115
-0.105
-0.095
-0.095
-0.075
-0.075
-0.055
-0.025
-0.015
0.005
0.025
0.045
0.065
0.065
0.125
0.125
0.175
0.195
0.195
0.195
0.195
0.145
0.125
0.075
0.015
-0.035
-0.115
-0.135
-0.175
-0.205
-0.185
-0.225
-0.225
-0.195
-0.185
-0.195
-0.185
-0.205
-0.185
-0.175
-0.185
-0.175
-0.165
-0.175
-0.185
-0.195
-0.185
-0.175
-0.195
-0.165
-0.185
-0.185
-0.185
-0.205
-0.195
-0.205
-0.215
-0.175
-0.195
-0.185
-0.195
-0.195
-0.175
-0.195
-0.185
-0.185
-0.175
-0.195
-0.195
-0.205
-0.185
-0.175
-0.175
-0.185
-0.175
-0.175
-0.195
-0.195
-0.175
-0.175
-0.125
-0.065
-0.085
-0.055
-0.005
0.025
-0.025
-0.025
-0.105
-0.145
-0.155
-0.165
-0.165
-0.155
-0.135
-0.115
-0.025
0.605
1.355
1.055
-0.185
-0.625
-0.465
-0.195
-0.135
-0.125
-0.135
-0.135
-0.115
-0.135
-0.115
-0.115
-0.115
-0.075
-0.075
-0.085
-0.085
-0.075
-0.045
-0.035
-0.015
0.015
0.025
0.035
0.055
0.055
0.095
0.115
0.145
0.195
0.195
0.215
0.235
0.195
0.215
0.215
0.175
0.155
0.085
0.025
-0.035
-0.085
-0.085
-0.125
-0.115
-0.115
-0.135
-0.125
-0.135
-0.115
-0.115
-0.115
-0.095
-0.085
-0.075
-0.085
-0.075
-0.075
-0.065
-0.075
-0.085
-0.065
-0.055
-0.085
-0.095
-0.105
-0.095
-0.085
-0.095
-0.085
-0.085
-0.085
-0.115
-0.095
-0.095
-0.105
-0.115
-0.075
-0.095
-0.095
-0.105
-0.105
-0.105
-0.085
-0.095
-0.085
-0.085
-0.095
-0.085
-0.095
-0.095
-0.075
-0.075
-0.025
0.035
0.025
0.055
0.075
0.115
0.095
0.065
0.005
-0.055
-0.075
-0.065
-0.085
-0.055
-0.065
-0.015
0.155
0.885
1.665
1.215
-0.295
-0.565
-0.315
-0.055
-0.035
-0.055
-0.045
-0.055
-0.075
-0.065
-0.045
-0.055
-0.025
-0.025
-0.025
-0.025
-0.015
0.005
0.015
-0.005
0.025
0.045
0.055
0.095
0.085
0.115
0.145
0.175
0.195
0.215
0.225
0.245
0.245
0.265
0.255
0.235
0.225
0.165
0.115
0.055
-0.005
-0.025
-0.075
-0.095
-0.095
-0.125
-0.125
-0.115
-0.125
-0.105
-0.095
-0.095
-0.085
-0.085
-0.065
-0.055
-0.085
-0.055
-0.075
-0.065
-0.055
-0.085
-0.065
-0.095
-0.105
-0.085
-0.105
-0.105
-0.095
-0.105
-0.115
-0.105
-0.125
-0.105
-0.125
-0.125
-0.105
-0.125
-0.135
-0.135
-0.135
-0.115
-0.115
-0.115
-0.115
-0.105
-0.125
-0.125
-0.125
-0.115
-0.115
-0.125
-0.095
-0.065
-0.015
-0.015
0.005
0.065
0.075
0.055
0.045
-0.035
-0.105
-0.115
-0.145
-0.125
-0.105
-0.095
-0.105
-0.005
0.585
1.385
1.585
-0.025
-0.645
-0.445
-0.135
-0.085
-0.115
-0.135
-0.135
-0.135
-0.135
-0.115
-0.115
-0.105
-0.105
-0.105
-0.135
-0.095
-0.065
-0.065
-0.045
-0.055
-0.025
-0.005
-0.035
0.025
0.025
0.055
0.105
0.115
0.135
0.145
0.145
0.195
0.195
0.185
0.205
0.165
0.125
0.055
-0.005
-0.055
-0.095
-0.145
-0.145
-0.175
-0.185
-0.185
-0.185
-0.185
-0.195
-0.175
-0.145
-0.155
-0.175
-0.135
-0.145
-0.175
-0.145
-0.145
-0.135
-0.145
-0.155
-0.155
-0.175
-0.165
-0.175
-0.175
-0.165
-0.185
-0.185
-0.175
-0.205
-0.195
-0.185
-0.205
-0.185
-0.195
-0.205
-0.195
-0.205
-0.205
-0.195
-0.235
-0.195
-0.195
-0.215
-0.195
-0.225
-0.205
-0.205
-0.215
-0.205
-0.235
-0.215
-0.205
-0.215
-0.145
-0.115
-0.125
-0.075
-0.015
-0.045
-0.045
-0.095
-0.135
-0.225
-0.235
-0.235
-0.245
-0.225
-0.215
-0.215
-0.125
0.505
1.335
1.005
-0.455
-0.735
-0.495
-0.255
-0.235
-0.235
-0.245
-0.235
-0.255
-0.255
-0.225
-0.245
-0.235
-0.225
-0.255
-0.205
-0.195
-0.185
-0.185
-0.195
-0.165
-0.145
-0.145
-0.125
-0.105
-0.085
-0.055
-0.055
-0.015
0.005
0.015
0.035
0.055
0.065
0.075
0.045
0.045
0.025
-0.035
-0.095
-0.165
-0.225
-0.235
-0.275
-0.305
-0.305
-0.315
-0.305
-0.305
-0.315
-0.295
-0.295
-0.285
-0.285
-0.295
-0.265
-0.285
-0.265
-0.265
-0.275
-0.285
-0.295
-0.295
-0.275
-0.275
-0.295
-0.305
-0.325
-0.305
-0.295
-0.305
-0.295
-0.285
-0.315
-0.305
-0.305
-0.295
-0.305
-0.295
-0.305
-0.295
-0.295
-0.285
-0.305
-0.295
-0.285
-0.285
-0.295
-0.275
-0.275
-0.295
-0.295
-0.285
-0.285
-0.285
-0.265
-0.285
-0.275
-0.275
-0.275
-0.255
-0.215
-0.185
-0.175
-0.145
-0.085
-0.065
-0.095
-0.085
-0.165
-0.235
-0.275
-0.285
-0.275
-0.255
-0.275
-0.245
-0.205
0.095
0.835
1.335
0.075
-0.735
-0.665
-0.365
-0.245
-0.265
-0.265
-0.265
-0.265
-0.265
-0.275
-0.265
-0.255
-0.245
-0.225
-0.225
-0.235
-0.215
-0.205
-0.185
-0.185
-0.165
-0.135
-0.135
-0.115
-0.075
-0.085
-0.065
-0.045
-0.015
0.025
0.025
0.035
0.065
0.045
0.065
0.065
0.025
0.005
-0.055
-0.115
-0.155
-0.215
-0.235
-0.265
-0.285
-0.265
-0.275
-0.295
-0.285
-0.275
-0.255
-0.265
-0.255
-0.235
-0.235
-0.245
-0.245
-0.245
-0.245
-0.245
-0.235
-0.225
-0.255
-0.235
-0.245
-0.265
-0.245
-0.245
-0.245
-0.235
-0.245
-0.245
-0.245
-0.265
-0.245
-0.245
-0.255
-0.215
-0.215
-0.235
-0.225
-0.245
-0.235
-0.225
-0.245
-0.215
-0.215
-0.205
-0.225
-0.215
-0.195
-0.195
-0.195
-0.185
-0.185
-0.175
-0.175
-0.175
-0.155
-0.155
-0.135
-0.085
-0.075
-0.055
-0.005
0.005
0.015
-0.005
-0.075
-0.115
-0.155
-0.175
-0.175
-0.175
-0.135
-0.105
-0.085
0.325
1.015
1.315
0.095
-0.605
-0.495
-0.235
-0.165
-0.145
-0.155
-0.145
-0.155
-0.175
-0.155
-0.145
-0.145
-0.125
-0.125
-0.125
-0.115
-0.105
-0.085
-0.075
-0.055
-0.025
-0.035
-0.015
-0.005
0.015
0.045
0.045
0.085
0.115
0.125
0.145
0.175
0.165
0.175
0.175
0.145
0.145
0.085
0.045
0.005
-0.085
-0.085
-0.115
-0.145
-0.145
-0.165
-0.165
-0.155
-0.185
-0.155
-0.145
-0.125
-0.115
-0.115
-0.125
-0.125
-0.135
-0.105
-0.105
-0.105
-0.095
-0.115
-0.125
-0.135
-0.125
-0.125
-0.135
-0.135
-0.105
-0.135
-0.145
-0.125
-0.135
-0.125
-0.125
-0.125
-0.105
-0.135
-0.125
-0.115
-0.125
-0.105
-0.115
-0.115
-0.085
-0.105
-0.105
-0.095
-0.115
-0.115
-0.105
-0.075
-0.065
-0.095
-0.075
-0.095
-0.105
-0.075
-0.065
-0.055
-0.015
0.045
0.035
0.065
0.115
0.125
0.135
0.075
0.035
-0.015
-0.065
-0.055
-0.085
-0.055
-0.035
-0.015
0.035
0.575
1.325
1.485
0.105
-0.525
-0.365
-0.075
-0.015
-0.035
-0.035
-0.035
-0.045
-0.035
-0.015
-0.015
0.005
0.005
0.005
0.015
0.005
0.025
0.055
0.065
0.085
0.095
0.125
0.115
0.125
0.155
0.185
0.195
0.245
0.245
0.285
0.305
0.305
0.335
0.325
0.315
0.305
0.295
0.255
0.185
0.105
0.085
0.025
-0.015
-0.015
-0.025
-0.035
-0.045
-0.055
-0.015
-0.015
0.005
0.025
0.025
0.015
0.025
0.035
0.045
0.075
0.075
0.085
0.085
0.085
0.095
0.095
0.105
0.105
0.125
0.145
0.145
0.155
0.155
0.165
0.175
0.195
0.195
0.205
0.215
0.225
0.225
0.235
0.235
0.245
0.245
0.255
0.265
0.265
0.255
0.265
0.275
0.275
0.265
0.275
0.285
0.275
0.275
0.285
0.285
0.285
0.285
0.295
0.295
0.295
0.305
0.305
0.305
0.295
0.285
0.285
0.275
0.275
0.275
0.275
0.275
0.285
0.305
0.395
0.505
0.385
0.205
0.175
0.215
0.235
0.225
0.215
0.215
0.205
0.195
0.185
0.185
0.175
0.175
0.155
0.155
0.155
0.145
0.145
0.155
0.135
0.145
0.165
0.165
0.165
0.165
0.175
0.195
0.215
0.225
0.255
0.265
0.285
0.285
0.285
0.295
0.295
0.265
0.225
0.185
0.105
0.035
0.005
-0.015
-0.035
-0.055
-0.055
-0.075
-0.085
-0.065
-0.075
-0.065
-0.055
-0.065
-0.045
-0.025
-0.045
-0.015
-0.045
-0.045
-0.025
-0.045
-0.065
-0.045
-0.035
-0.035
-0.075
-0.055
-0.095
-0.035
-0.035
-0.065
-0.055
-0.065
-0.075
-0.085
-0.065
-0.035
-0.015
-0.035
-0.065
-0.075
-0.035
-0.045
-0.075
-0.035
-0.015
-0.075
-0.055
-0.055
-0.095
-0.055
-0.055
-0.075
0.005
-0.025
-0.045
-0.005
0.045
0.065
0.075
0.185
0.205
0.145
0.005
-0.025
-0.095
-0.105
-0.075
-0.065
-0.055
-0.035
0.005
0.315
1.065
1.585
0.345
-0.585
-0.395
-0.185
-0.075
-0.095
-0.105
-0.075
-0.095
-0.025
-0.065
-0.075
-0.075
-0.085
-0.085
-0.035
-0.025
-0.025
-0.005
-0.005
-0.005
0.035
0.055
0.035
0.105
0.085
0.135
0.135
0.155
0.155
0.175
0.225
0.245
0.245
0.265
0.305
0.235
0.175
0.125
0.055
0.045
-0.015
-0.045
-0.065
-0.115
-0.155
-0.105
-0.155
-0.125
-0.125
-0.095
-0.135
-0.115
-0.065
-0.135
-0.105
-0.065
-0.125
-0.095
-0.095
-0.105
-0.105
-0.125
-0.155
-0.135
-0.105
-0.145
-0.155
-0.145
-0.135
-0.155
-0.135
-0.135
-0.165
-0.145
-0.145
-0.145
-0.125
-0.165
-0.165
-0.165
-0.165
-0.145
-0.095
-0.135
-0.135
-0.165
-0.135
-0.145
-0.145
-0.115
-0.135
-0.145
-0.145
-0.125
-0.085
-0.055
-0.045
0.005
0.055
0.065
0.015
0.075
-0.025
-0.075
-0.115
-0.145
-0.115
-0.115
-0.125
-0.055
-0.085
0.145
0.855
1.455
0.505
-0.505
-0.495
-0.265
-0.105
-0.095
-0.095
-0.115
-0.085
-0.135
-0.125
-0.065
-0.075
-0.085
-0.095
-0.075
-0.045
-0.055
-0.035
-0.035
-0.025
0.025
-0.015
0.065
0.045
0.065
0.115
0.075
0.105
0.215
0.155
0.175
0.185
0.185
0.215
0.205
0.215
0.155
0.155
0.075
0.005
0.015
-0.105
-0.125
-0.145
-0.115
-0.155
-0.185
-0.165
-0.135
-0.115
-0.125
-0.135
-0.145
-0.065
-0.125
-0.125
-0.115
-0.085
-0.145
-0.155
-0.125
-0.115
-0.135
-0.165
-0.135
-0.145
-0.185
-0.155
-0.185
-0.175
-0.145
-0.155
-0.165
-0.175
-0.155
-0.185
-0.145
-0.185
-0.175
-0.175
-0.165
-0.135
-0.205
-0.155
-0.165
-0.145
-0.155
-0.155
-0.145
-0.185
-0.195
-0.145
-0.135
-0.155
-0.155
-0.135
-0.115
-0.075
-0.075
0.005
0.005
0.025
0.045
0.005
-0.045
-0.105
-0.145
-0.135
-0.185
-0.145
-0.115
-0.145
-0.115
0.325
1.065
1.225
0.025
-0.615
-0.515
-0.175
-0.175
-0.125
-0.195
-0.165
-0.175
-0.175
-0.165
-0.155
-0.145
-0.155
-0.145
-0.115
-0.105
-0.125
-0.105
-0.095
-0.095
-0.035
-0.065
-0.065
0.015
-0.015
0.015
0.035
0.045
0.065
0.095
0.085
0.135
0.145
0.155
0.105
0.135
0.095
0.065
-0.005
-0.055
-0.085
-0.135
-0.175
-0.205
-0.225
-0.245
-0.245
-0.235
-0.235
-0.195
-0.245
-0.185
-0.185
-0.215
-0.245
-0.215
-0.205
-0.215
-0.215
-0.195
-0.195
-0.265
-0.235
-0.195
-0.255
-0.255
-0.245
-0.235
-0.275
-0.255
-0.275
-0.235
-0.255
-0.235
-0.255
-0.225
-0.265
-0.235
-0.255
-0.215
-0.255
-0.245
-0.185
-0.275
-0.265
-0.245
-0.255
-0.225
-0.235
-0.225
-0.225
-0.215
-0.255
-0.245
-0.255
-0.255
-0.235
-0.235
-0.225
-0.225
-0.155
-0.145
-0.145
-0.075
-0.045
-0.045
-0.075
-0.125
-0.245
-0.265
-0.255
-0.235
-0.265
-0.245
-0.205
-0.185
0.075
0.775
1.215
0.115
-0.685
-0.585
-0.275
-0.235
-0.245
-0.255
-0.235
-0.225
-0.215
-0.235
-0.225
-0.205
-0.225
-0.215
-0.195
-0.195
-0.155
-0.155
-0.135
-0.155
-0.135
-0.125
-0.075
-0.085
-0.075
-0.035
-0.025
0.005
-0.005
0.015
0.085
0.085
0.065
0.105
0.075
0.065
0.045
-0.015
-0.075
-0.135
-0.175
-0.215
-0.245
-0.255
-0.265
-0.285
-0.305
-0.255
-0.265
-0.255
-0.245
-0.235
-0.245
-0.255
-0.245
-0.245
-0.245
-0.235
-0.235
-0.275
-0.245
-0.275
-0.265
-0.265
-0.265
-0.265
-0.265
-0.265
-0.275
-0.275
-0.275
-0.285
-0.285
-0.265
-0.275
-0.265
-0.275
-0.265
-0.275
-0.275
-0.275
-0.265
-0.265
-0.255
-0.275
-0.285
-0.285
-0.265
-0.275
-0.275
-0.265
-0.265
-0.255
-0.275
-0.265
-0.245
-0.255
-0.255
-0.235
-0.185
-0.155
-0.165
-0.095
-0.045
-0.065
-0.045
-0.115
-0.205
-0.265
-0.285
-0.265
-0.255
-0.265
-0.245
-0.205
-0.095
0.545
1.295
0.765
-0.455
-0.735
-0.515
-0.265
-0.245
-0.265
-0.265
-0.265
-0.255
-0.245
-0.235
-0.235
-0.245
-0.235
-0.235
-0.215
-0.205
-0.185
-0.185
-0.155
-0.155
-0.145
-0.145
-0.125
-0.085
-0.085
-0.055
-0.025
-0.005
0.005
0.035
0.025
0.075
0.075
0.075
0.085
0.055
0.015
-0.005
-0.075
-0.135
-0.195
-0.225
-0.245
-0.265
-0.295
-0.285
-0.275
-0.275
-0.285
-0.265
-0.275
-0.255
-0.245
-0.255
-0.255
-0.245
-0.265
-0.265
-0.245
-0.245
-0.235
-0.275
-0.265
-0.255
-0.275
-0.275
-0.265
-0.285
-0.275
-0.265
-0.275
-0.285
-0.295
-0.265
-0.275
-0.285
-0.275
-0.265
-0.255
-0.265
-0.295
-0.265
-0.255
-0.265
-0.265
-0.265
-0.275
-0.255
-0.265
-0.245
-0.245
-0.255
-0.245
-0.255
-0.245
-0.235
-0.195
-0.115
-0.125
-0.105
-0.045
-0.045
-0.055
-0.075
-0.145
-0.195
-0.225
-0.225
-0.205
-0.225
-0.215
-0.175
-0.125
0.365
1.065
1.175
-0.015
-0.685
-0.555
-0.295
-0.175
-0.185
-0.195
-0.185
-0.175
-0.185
-0.175
-0.165
-0.155
-0.145
-0.155
-0.125
-0.135
-0.135
-0.115
-0.095
-0.095
-0.075
-0.055
-0.045
-0.015
-0.015
0.005
0.025
0.035
0.095
0.105
0.125
0.125
0.125
0.145
0.145
0.135
0.105
0.095
0.045
0.005
-0.065
-0.135
-0.155
-0.165
-0.175
-0.185
-0.185
-0.185
-0.185
-0.165
-0.175
-0.175
-0.155
-0.135
-0.145
-0.155
-0.175
-0.155
-0.165
-0.145
-0.145
-0.135
-0.175
-0.145
-0.175
-0.175
-0.165
-0.165
-0.165
-0.175
-0.175
-0.195
-0.185
-0.175
-0.175
-0.175
-0.155
-0.175
-0.155
-0.165
-0.185
-0.175
-0.175
-0.185
-0.165
-0.145
-0.135
-0.165
-0.185
-0.175
-0.175
-0.185
-0.145
-0.125
-0.165
-0.165
-0.185
-0.145
-0.145
-0.155
-0.095
-0.045
-0.055
-0.005
0.035
0.055
0.035
-0.035
-0.055
-0.135
-0.175
-0.145
-0.165
-0.125
-0.135
-0.125
-0.055
0.535
1.305
1.075
-0.215
-0.635
-0.425
-0.165
-0.115
-0.125
-0.145
-0.135
-0.155
-0.135
-0.125
-0.125
-0.105
-0.125
-0.095
-0.095
-0.085
-0.085
-0.055
-0.055
-0.025
-0.005
0.035
0.005
0.055
0.085
0.145
0.115
0.095
0.125
0.155
0.195
0.205
0.225
0.265
0.235
0.235
0.215
0.125
0.085
0.005
-0.015
-0.085
-0.095
-0.105
-0.105
-0.155
-0.155
-0.145
-0.145
-0.125
-0.115
-0.105
-0.095
-0.105
-0.105
-0.095
-0.095
-0.085
-0.085
-0.085
-0.115
-0.105
-0.115
-0.125
-0.105
-0.115
-0.115
-0.115
-0.105
-0.125
-0.125
-0.145
-0.115
-0.135
-0.125
-0.115
-0.115
-0.125
-0.125
-0.135
-0.135
-0.125
-0.105
-0.105
-0.115
-0.125
-0.125
-0.125
-0.125
-0.115
-0.115
-0.115
-0.095
-0.105
-0.125
-0.105
-0.095
-0.095
-0.095
-0.075
-0.085
-0.045
0.005
0.005
0.045
0.105
0.125
0.095
0.095
-0.005
-0.035
-0.085
-0.095
-0.075
-0.075
-0.065
-0.025
-0.025
0.295
1.035
1.565
0.375
-0.485
-0.395
-0.125
-0.035
0.015
-0.025
-0.045
-0.045
-0.045
-0.015
-0.005
-0.015
0.005
-0.005
0.025
0.025
0.035
0.055
0.075
0.085
0.075
0.095
0.125
0.135
0.165
0.195
0.215
0.225
0.265
0.275
0.305
0.315
0.335
0.335
0.355
0.315
0.275
0.205
0.155
0.105
0.055
0.025
-0.015
0.005
-0.035
-0.055
-0.005
-0.045
0.015
-0.015
-0.025
-0.005
0.005
-0.005
0.015
0.015
0.025
0.025
0.035
0.035
0.015
-0.005
0.015
0.015
0.005
0.005
0.005
0.025
0.015
-0.015
0.005
0.015
0.005
0.055
0.025
-0.015
0.015
-0.005
0.025
0.015
0.015
0.025
0.025
0.055
0.035
0.015
0.015
0.035
0.045
0.035
0.055
0.065
0.045
0.035
0.045
0.065
0.075
0.085
0.065
0.095
0.145
0.145
0.175
0.245
0.265
0.255
0.265
0.205
0.125
0.075
0.075
0.055
0.085
0.115
0.115
0.165
0.605
1.325
1.695
0.435
-0.385
-0.255
0.035
0.105
0.115
0.095
0.105
0.095
0.115
0.135
0.135
0.145
0.135
0.125
0.155
0.155
0.175
0.185
0.215
0.215
0.245
0.255
0.255
0.275
0.315
0.335
0.355
0.365
0.405
0.425
0.485
0.405
0.475
0.465
0.455
0.445
0.385
0.345
0.315
0.265
0.195
0.145
0.075
0.115
0.085
0.055
0.085
0.105
0.095
0.115
0.105
0.105
0.105
0.075
0.115
0.125
0.135
0.115
0.115
0.095
0.095
0.085
0.095
0.105
0.095
0.115
0.095
0.085
0.095
0.075
0.085
0.115
0.095
0.095
0.115
0.085
0.105
0.095
0.115
0.125
0.125
0.125
0.105
0.125
0.115
0.115
0.115
0.135
0.135
0.135
0.155
0.135
0.125
0.115
0.145
0.135
0.135
0.145
0.145
0.145
0.155
0.195
0.195
0.225
0.275
0.305
0.275
0.235
0.185
0.145
0.125
0.105
0.095
0.095
0.115
0.115
0.145
0.485
1.175
1.565
0.435
-0.305
-0.265
0.025
0.085
0.075
0.075
0.085
0.075
0.075
0.085
0.095
0.085
0.095
0.105
0.085
0.095
0.135
0.125
0.145
0.155
0.155
0.175
0.205
0.205
0.245
0.255
0.275
0.315
0.315
0.355
0.365
0.365
0.425
0.425
0.395
0.355
0.315
0.305
0.215
0.145
0.115
0.065
0.035
0.005
-0.005
0.005
-0.005
-0.015
0.025
0.025
0.015
0.025
0.005
0.025
0.035
0.015
0.045
0.015
0.025
0.015
-0.005
0.015
0.005
-0.015
0.005
-0.015
-0.025
-0.025
-0.025
-0.035
-0.035
-0.035
-0.025
-0.025
-0.035
-0.025
-0.045
-0.045
-0.045
-0.035
-0.025
-0.035
-0.035
-0.035
-0.055
-0.045
-0.035
-0.045
-0.015
-0.025
-0.035
-0.035
-0.045
-0.045
-0.045
-0.025
-0.025
-0.025
-0.025
0.005
0.025
0.025
0.055
0.115
0.155
0.125
0.105
0.025
-0.025
-0.055
-0.075
-0.065
-0.045
-0.055
-0.035
-0.015
0.475
1.165
1.375
0.165
-0.475
-0.375
-0.125
-0.055
-0.085
-0.055
-0.075
-0.065
-0.045
-0.055
-0.055
-0.025
-0.025
-0.015
-0.005
-0.015
0.005
0.015
0.025
0.035
0.025
0.055
0.085
0.085
0.125
0.135
0.155
0.165
0.175
0.215
0.225
0.235
0.265
0.265
0.275
0.255
0.195
0.185
0.115
0.055
0.025
-0.015
-0.055
-0.095
-0.115
-0.115
-0.105
-0.095
-0.095
-0.085
-0.105
-0.095
-0.105
-0.085
-0.085
-0.075
-0.085
-0.075
-0.095
-0.085
-0.085
-0.085
-0.065
-0.075
-0.075
-0.085
-0.085
-0.085
-0.105
-0.085
-0.075
-0.085
-0.075
-0.065
-0.085
-0.075
-0.095
-0.095
-0.085
-0.095
-0.095
-0.095
-0.085
-0.085
-0.115
-0.095
-0.085
-0.105
-0.095
-0.105
-0.105
-0.095
-0.115
-0.115
-0.095
-0.105
-0.085
-0.105
-0.065
-0.015
-0.035
0.025
0.075
0.045
0.055
0.005
-0.055
-0.115
-0.135
-0.125
-0.125
-0.115
-0.075
-0.075
0.015
0.605
1.275
0.915
-0.205
-0.515
-0.375
-0.165
-0.115
-0.135
-0.155
-0.125
-0.125
-0.135
-0.105
-0.115
-0.115
-0.115
-0.115
-0.095
-0.095
-0.085
-0.075
-0.055
-0.055
-0.045
-0.025
-0.015
0.005
0.025
0.045
0.065
0.065
0.095
0.105
0.155
0.145
0.135
0.165
0.165
0.145
0.125
0.065
0.025
-0.015
-0.065
-0.075
-0.115
-0.135
-0.155
-0.175
-0.155
-0.165
-0.165
-0.145
-0.135
-0.135
-0.145
-0.155
-0.125
-0.115
-0.125
-0.115
-0.105
-0.135
-0.135
-0.155
-0.135
-0.125
-0.135
-0.135
-0.145
-0.135
-0.145
-0.165
-0.155
-0.145
-0.165
-0.155
-0.155
-0.165
-0.165
-0.175
-0.155
-0.155
-0.185
-0.155
-0.175
-0.175
-0.155
-0.185
-0.175
-0.185
-0.175
-0.155
-0.165
-0.175
-0.175
-0.195
-0.185
-0.175
-0.185
-0.175
-0.155
-0.115
-0.085
-0.115
-0.045
0.005
-0.015
-0.015
-0.085
-0.115
-0.145
-0.205
-0.205
-0.195
-0.185
-0.155
-0.145
0.075
0.705
1.325
0.525
-0.475
-0.575
-0.325
-0.215
-0.205
-0.205
-0.215
-0.205
-0.195
-0.215
-0.185
-0.195
-0.195
-0.185
-0.195
-0.185
-0.145
-0.135
-0.115
-0.115
-0.105
-0.085
-0.085
-0.065
-0.045
-0.035
-0.015
0.005
0.045
0.055
0.065
0.085
0.105
0.115
0.115
0.105
0.095
0.045
0.005
-0.065
-0.105
-0.145
-0.185
-0.205
-0.215
-0.225
-0.245
-0.235
-0.225
-0.225
-0.215
-0.225
-0.215
-0.195
-0.225
-0.205
-0.205
-0.215
-0.205
-0.205
-0.205
-0.215
-0.235
-0.235
-0.235
-0.245
-0.245
-0.265
-0.265
-0.265
-0.275
-0.275
-0.275
-0.285
-0.285
-0.275
-0.305
-0.305
-0.305
-0.295
-0.305
-0.295
-0.285
-0.305
-0.305
-0.305
-0.315
-0.305
-0.315
-0.315
-0.295
-0.315
-0.325
-0.315
-0.315
-0.315
-0.305
-0.315
-0.315
-0.285
-0.265
-0.245
-0.255
-0.195
-0.155
-0.185
-0.165
-0.235
-0.295
-0.345
-0.365
-0.355
-0.335
-0.335
-0.315
-0.285
-0.055
0.545
1.125
0.295
-0.615
-0.685
-0.455
-0.325
-0.325
-0.325
-0.345
-0.335
-0.325
-0.325
-0.315
-0.315
-0.315
-0.315
-0.325
-0.295
-0.285
-0.285
-0.265
-0.265
-0.255
-0.245
-0.245
-0.225
-0.205
-0.185
-0.155
-0.135
-0.145
-0.125
-0.095
-0.065
-0.055
-0.055
-0.045
-0.045
-0.085
-0.115
-0.165
-0.215
-0.255
-0.295
-0.325
-0.355
-0.375
-0.385
-0.385
-0.385
-0.375
-0.385
-0.375
-0.365
-0.365
-0.365
-0.355
-0.345
-0.355
-0.365
-0.345
-0.355
-0.375
-0.365
-0.375
-0.375
-0.365
-0.385
-0.385
-0.385
-0.385
-0.395
-0.425
-0.405
-0.395
-0.405
-0.395
-0.405
-0.405
-0.415
-0.415
-0.405
-0.405
-0.415
-0.395
-0.405
-0.395
-0.395
-0.395
-0.385
-0.385
-0.385
-0.365
-0.375
-0.385
-0.375
-0.375
-0.365
-0.365
-0.355
-0.315
-0.275
-0.275
-0.235
-0.205
-0.215
-0.215
-0.265
-0.305
-0.345
-0.365
-0.365
-0.365
-0.345
-0.315
-0.295
0.005
0.605
0.965
0.065
-0.645
-0.625
-0.435
-0.325
-0.305
-0.295
-0.305
-0.295
-0.305
-0.285
-0.285
-0.265
-0.245
-0.235
-0.255
-0.235
-0.225
-0.225
-0.215
-0.195
-0.175
-0.145
-0.145
-0.125
-0.125
-0.105
-0.085
-0.055
-0.045
-0.025
-0.005
0.015
0.005
0.015
0.015
0.015
0.005
-0.015
-0.065
-0.095
-0.145
-0.165
-0.185
-0.205
-0.215
-0.215
-0.205
-0.225
-0.215
-0.215
-0.205
-0.185
-0.205
-0.185
-0.185
-0.175
-0.175
-0.185
-0.185
-0.195
-0.185
-0.185
-0.185
-0.205
-0.215
-0.215
-0.215
-0.235
-0.225
-0.245
-0.225
-0.235
-0.265
-0.255
-0.245
-0.255
-0.255
-0.245
-0.265
-0.265
-0.275
-0.265
-0.265
-0.255
-0.265
-0.275
-0.265
-0.265
-0.275
-0.275
-0.245
-0.255
-0.265
-0.265
-0.245
-0.245
-0.255
-0.245
-0.245
-0.245
-0.225
-0.175
-0.175
-0.155
-0.135
-0.065
-0.075
-0.085
-0.145
-0.175
-0.205
-0.245
-0.225
-0.235
-0.215
-0.215
-0.195
-0.135
0.375
1.015
0.775
-0.335
-0.575
-0.395
-0.215
-0.215
-0.215
-0.225
-0.235
-0.215
-0.205
-0.205
-0.175
-0.185
-0.185
-0.185
-0.175
-0.155
-0.145
-0.125
-0.105
-0.095
-0.075
-0.065
-0.055
-0.055
-0.025
-0.005
0.035
0.075
0.085
0.105
0.105
0.135
0.145
0.135
0.145
0.115
0.055
-0.005
-0.055
-0.105
-0.135
-0.155
-0.185
-0.205
-0.205
-0.225
-0.235
-0.225
-0.225
-0.215
-0.195
-0.205
-0.205
-0.195
-0.195
-0.195
-0.185
-0.185
-0.175
-0.175
-0.195
-0.195
-0.215
-0.215
-0.215
-0.215
-0.215
-0.215
-0.225
-0.235
-0.235
-0.245
-0.245
-0.245
-0.245
-0.225
-0.245
-0.245
-0.255
-0.245
-0.235
-0.245
-0.245
-0.245
-0.245
-0.245
-0.245
-0.245
-0.235
-0.235
-0.215
-0.215
-0.245
-0.245
-0.225
-0.215
-0.205
-0.215
-0.185
-0.185
-0.185
-0.165
-0.115
-0.105
-0.085
-0.025
0.025
-0.005
-0.045
-0.095
-0.155
-0.175
-0.175
-0.175
-0.165
-0.155
-0.135
-0.085
0.335
1.055
1.165
-0.055
-0.585
-0.475
-0.205
-0.135
-0.165
-0.155
-0.145
-0.155
-0.125
-0.145
-0.115
-0.115
-0.135
-0.115
-0.105
-0.095
-0.075
-0.065
-0.055
-0.025
-0.035
-0.005
0.015
0.045
0.065
0.065
0.075
0.105
0.125
0.165
0.185
0.185
0.225
0.235
0.225
0.205
0.185
0.145
0.095
0.025
-0.015
-0.045
-0.085
-0.115
-0.135
-0.135
-0.135
-0.135
-0.115
-0.135
-0.125
-0.115
-0.115
-0.085
-0.085
-0.075
-0.065
-0.065
-0.075
-0.065
-0.085
-0.065
-0.075
-0.085
-0.075
-0.075
-0.075
-0.065
-0.095
-0.095
-0.075
-0.075
-0.065
-0.065
-0.065
-0.055
-0.075
-0.065
-0.055
-0.065
-0.055
-0.065
-0.065
-0.055
-0.065
-0.055
-0.055
-0.055
-0.045
-0.055
-0.045
-0.045
-0.065
-0.045
-0.035
-0.055
-0.035
-0.035
-0.025
-0.045
-0.035
0.015
0.075
0.055
0.125
0.165
0.135
0.155
0.125
0.075
0.025
0.005
0.015
0.015
0.035
0.045
0.075
0.145
0.715
1.425
1.225
-0.055
-0.425
-0.265
-0.025
0.055
0.065
0.025
0.055
0.055
0.055
0.045
0.065
0.065
0.075
0.065
0.075
0.085
0.105
0.095
0.125
0.135
0.135
0.145
0.165
0.205
0.195
0.215
0.255
0.255
0.285
0.295
0.305
0.345
0.365
0.375
0.365
0.345
0.345
0.305
0.255
0.195
0.115
0.055
0.065
-0.005
-0.005
-0.015
-0.015
-0.005
-0.025
-0.005
-0.005
-0.015
0.015
0.005
0.015
0.025
0.035
0.045
0.035
0.015
0.005
0.015
0.025
0.015
0.005
-0.005
-0.005
0.015
-0.005
0.005
0.015
0.005
-0.015
-0.005
-0.045
-0.005
0.005
0.005
-0.005
-0.015
0.005
-0.015
-0.025
-0.015
-0.015
-0.005
0.005
-0.005
-0.015
-0.015
-0.015
-0.015
-0.015
0.005
0.005
0.015
-0.005
-0.015
-0.015
0.015
0.005
-0.005
0.035
0.065
0.115
0.085
0.115
0.165
0.175
0.185
0.135
0.065
0.005
-0.005
-0.025
-0.015
0.005
0.005
0.045
0.165
0.785
1.535
0.965
-0.265
-0.445
-0.205
-0.015
0.025
0.005
-0.025
-0.015
-0.015
0.005
-0.015
0.015
0.045
0.025
0.025
0.025
0.055
0.055
0.065
0.095
0.105
0.105
0.135
0.125
0.155
0.165
0.185
0.215
0.265
0.265
0.275
0.295
0.325
0.335
0.335
0.345
0.325
0.275
0.235
0.145
0.105
0.055
0.015
-0.025
-0.035
-0.045
-0.065
-0.085
-0.065
-0.065
-0.045
-0.025
-0.035
-0.025
-0.045
-0.035
-0.035
-0.045
-0.035
-0.025
-0.025
0.005
-0.025
-0.045
-0.045
-0.035
-0.045
-0.035
-0.045
-0.045
-0.035
-0.035
-0.055
-0.065
-0.035
-0.045
-0.025
-0.035
-0.045
-0.025
-0.035
-0.035
-0.045
-0.025
-0.035
-0.025
-0.035
-0.055
-0.025
-0.035
-0.025
-0.025
-0.025
-0.035
-0.025
-0.035
-0.025
-0.015
-0.035
-0.015
-0.005
-0.025
-0.015
-0.005
0.015
0.065
0.075
0.105
0.145
0.175
0.155
0.155
0.105
0.025
-0.015
-0.025
-0.005
0.005
-0.005
0.005
0.075
0.345
1.005
1.665
0.705
-0.425
-0.425
-0.135
0.005
0.015
-0.005
0.015
0.005
0.005
0.025
0.005
0.015
0.025
0.015
0.055
0.045
0.045
0.065
0.055
0.085
0.085
0.115
0.135
0.155
0.155
0.175
0.175
0.205
0.235
0.245
0.265
0.295
0.285
0.285
0.275
0.275
0.255
0.215
0.185
0.135
0.085
0.055
0.015
0.005
-0.015
-0.005
-0.025
-0.015
-0.015
-0.015
-0.025
-0.015
-0.005
-0.005
0.015
-0.005
0.005
0.005
-0.005
-0.005
0.005
-0.015
0.005
-0.015
-0.015
-0.015
-0.035
-0.035
-0.025
-0.035
-0.015
-0.025
-0.025
-0.035
-0.055
-0.035
-0.035
-0.045
-0.015
-0.025
-0.035
-0.045
-0.035
-0.045
-0.025
-0.035
-0.025
-0.025
-0.025
-0.025
-0.055
-0.045
-0.035
-0.035
-0.025
-0.035
-0.035
-0.035
-0.045
-0.015
-0.035
-0.025
0.005
0.045
0.075
0.075
0.105
0.155
0.135
0.135
0.105
0.045
0.015
-0.015
-0.015
-0.015
-0.005
0.005
0.035
0.155
0.705
1.305
0.745
-0.205
-0.325
-0.155
-0.025
-0.005
-0.005
-0.015
-0.035
-0.025
-0.015
-0.035
-0.015
-0.005
-0.005
-0.005
-0.005
0.005
0.015
0.035
0.045
0.045
0.065
0.065
0.085
0.105
0.125
0.125
0.145
0.175
0.205
0.205
0.215
0.215
0.235
0.235
0.235
0.205
0.175
0.145
0.055
0.005
-0.025
-0.055
-0.075
-0.085
-0.105
-0.095
-0.125
-0.105
-0.095
-0.085
-0.085
-0.085
-0.085
-0.065
-0.085
-0.075
-0.085
-0.085
-0.075
-0.075
-0.085
-0.085
-0.095
-0.095
-0.095
-0.105
-0.105
-0.105
-0.105
-0.105
-0.125
-0.115
-0.105
-0.115
-0.095
-0.105
-0.105
-0.115
-0.115
-0.125
-0.095
-0.115
-0.095
-0.105
-0.105
-0.125
-0.125
-0.125
-0.105
-0.095
-0.095
-0.105
-0.105
-0.105
-0.115
-0.115
-0.105
-0.115
-0.105
-0.105
-0.105
-0.105
-0.105
-0.055
-0.015
-0.015
0.005
0.075
0.045
0.075
0.005
-0.045
-0.105
-0.105
-0.115
-0.115
-0.125
-0.105
-0.105
-0.045
0.555
1.215
0.975
-0.235
-0.505
-0.345
-0.155
-0.115
-0.115
-0.125
-0.115
-0.115
-0.125
-0.115
-0.145
-0.125
-0.095
-0.105
-0.095
-0.095
-0.075
-0.065
-0.075
-0.055
-0.035
-0.015
0.005
0.025
0.025
0.045
0.055
0.065
0.095
0.115
0.145
0.145
0.145
0.165
0.145
0.125
0.105
0.065
0.025
-0.035
-0.095
-0.125
-0.175
-0.165
-0.185
-0.185
-0.185
-0.175
-0.175
-0.185
-0.195
-0.165
-0.165
-0.155
-0.155
-0.145
-0.155
-0.165
-0.185
-0.165
-0.145
-0.165
-0.175
-0.175
-0.175
-0.175
-0.195
-0.195
-0.185
-0.195
-0.175
-0.205
-0.195
-0.195
-0.215
-0.205
-0.205
-0.195
-0.185
-0.185
-0.185
-0.195
-0.205
-0.215
-0.205
-0.175
-0.175
-0.185
-0.195
-0.195
-0.195
-0.185
-0.175
-0.185
-0.175
-0.165
-0.165
-0.165
-0.165
-0.175
-0.155
-0.165
-0.145
-0.125
-0.105
-0.065
-0.045
-0.015
0.045
0.045
0.035
0.025
-0.055
-0.115
-0.135
-0.155
-0.145
-0.145
-0.125
-0.095
-0.065
0.435
1.135
1.165
-0.075
-0.545
-0.415
-0.175
-0.125
-0.155
-0.155
-0.145
-0.155
-0.155
-0.135
-0.115
-0.135
-0.135
-0.115
-0.105
-0.105
-0.105
-0.075
-0.055
-0.065
-0.055
-0.025
-0.015
0.005
0.015
0.035
0.055
0.055
0.075
0.085
0.105
0.115
0.125
0.135
0.125
0.115
0.085
0.055
0.025
-0.015
-0.055
-0.085
-0.105
-0.135
-0.145
-0.155
-0.145
-0.145
-0.145
-0.135
-0.135
-0.135
-0.145
-0.145
-0.135
-0.135
-0.145
-0.135
-0.135
-0.145
-0.145
-0.165
-0.135
-0.165
-0.165
-0.165
-0.165
-0.145
-0.145
-0.175
-0.175
-0.165
-0.165
-0.135
-0.145
-0.155
-0.135
-0.165
-0.155
-0.145
-0.155
-0.125
-0.135
-0.155
-0.145
-0.155
-0.145
-0.145
-0.145
-0.135
-0.145
-0.135
-0.135
-0.145
-0.135
-0.145
-0.145
-0.135
-0.145
-0.145
-0.135
-0.135
-0.115
-0.065
-0.045
-0.025
0.015
0.045
0.025
0.005
-0.055
-0.095
-0.155
-0.175
-0.155
-0.145
-0.135
-0.165
-0.125
0.305
1.045
1.465
0.285
-0.535
-0.485
-0.235
-0.135
-0.125
-0.135
-0.135
-0.135
-0.125
-0.125
-0.125
-0.125
-0.115
-0.115
-0.085
-0.075
-0.065
-0.085
-0.075
-0.045
-0.035
-0.025
-0.015
0.015
0.025
0.025
0.045
0.065
0.105
0.115
0.125
0.145
0.145
0.165
0.155
0.145
0.135
0.095
0.075
0.045
0.005
-0.025
-0.055
-0.075
-0.075
-0.075
-0.075
-0.075
-0.085
-0.065
-0.075
-0.075
-0.065
-0.065
-0.065
-0.065
-0.075
-0.065
-0.085
-0.085
-0.075
-0.075
-0.075
-0.085
-0.095
-0.105
-0.115
-0.095
-0.115
-0.115
-0.105
-0.105
-0.115
-0.125
-0.125
-0.125
-0.135
-0.125
-0.115
-0.125
-0.145
-0.145
-0.145
-0.135
-0.135
-0.135
-0.135
-0.125
-0.135
-0.145
-0.155
-0.145
-0.145
-0.145
-0.125
-0.145
-0.135
-0.135
-0.155
-0.135
-0.135
-0.145
-0.145
-0.135
-0.115
-0.085
-0.065
-0.055
-0.025
0.035
0.025
0.045
-0.035
-0.085
-0.135
-0.155
-0.155
-0.145
-0.145
-0.135
-0.115
0.085
0.695
1.295
0.575
-0.395
-0.485
-0.275
-0.145
-0.135
-0.155
-0.165
-0.145
-0.155
-0.145
-0.135
-0.135
-0.125
-0.145
-0.115
-0.115
-0.105
-0.075
-0.075
-0.075
-0.055
-0.055
-0.035
-0.015
-0.005
0.015
0.035
0.055
0.065
0.075
0.105
0.125
0.115
0.155
0.165
0.135
0.125
0.105
0.075
0.025
-0.025
-0.055
-0.105
-0.125
-0.145
-0.155
-0.155
-0.155
-0.145
-0.135
-0.125
-0.135
-0.135
-0.135
-0.115
-0.105
-0.105
-0.085
-0.085
-0.095
-0.095
-0.115
-0.085
-0.095
-0.095
-0.085
-0.085
-0.085
-0.085
-0.105
-0.085
-0.095
-0.095
-0.085
-0.095
-0.095
-0.095
-0.095
-0.085
-0.095
-0.105
-0.095
-0.085
-0.095
-0.085
-0.095
-0.085
-0.095
-0.095
-0.085
-0.095
-0.095
-0.095
-0.105
-0.095
-0.085
-0.085
-0.075
-0.085
-0.085
-0.085
-0.095
-0.085
-0.085
-0.065
-0.005
-0.015
0.005
0.055
0.055
0.055
0.035
-0.005
-0.035
-0.065
-0.065
-0.075
-0.065
-0.055
-0.045
-0.035
0.275
0.815
0.935
0.115
-0.335
-0.275
-0.105
-0.065
-0.065
-0.075
-0.065
-0.065
-0.075
-0.075
-0.065
-0.065
-0.045
-0.055
-0.045
-0.055
-0.045
-0.035
-0.025
-0.005
0.005
0.015
0.015
0.045
0.055
0.075
0.085
0.095
0.115
0.145
0.145
0.165
0.145
0.185
0.165
0.165
0.135
0.105
0.065
0.025
-0.015
-0.025
-0.055
-0.065
-0.065
-0.075
-0.065
-0.065
-0.075
-0.065
-0.075
-0.055
-0.045
-0.035
-0.035
-0.045
-0.035
-0.035
-0.045
-0.045
-0.025
-0.025
-0.035
-0.025
-0.045
-0.025
-0.035
-0.035
-0.025
-0.025
-0.015
-0.035
-0.045
-0.025
-0.045
-0.035
-0.025
-0.025
-0.035
-0.045
-0.055
-0.045
-0.055
-0.055
-0.055
-0.075
-0.085
-0.065
-0.065
-0.085
-0.055
-0.045
-0.055
-0.055
-0.055
-0.095
-0.075
-0.075
-0.065
-0.065
-0.055
-0.075
-0.075
-0.095
-0.105
-0.095
-0.065
-0.015
0.005
-0.005
0.055
0.035
0.065
0.035
-0.045
-0.105
-0.125
-0.105
-0.125
-0.115
-0.115
-0.075
0.005
0.555
1.115
0.775
-0.205
-0.425
-0.305
-0.125
-0.095
-0.115
-0.095
-0.125
-0.095
-0.095
-0.105
-0.095
-0.085
-0.115
-0.105
-0.065
-0.095
-0.075
-0.065
-0.055
-0.015
-0.025
-0.025
-0.005
-0.005
0.015
0.025
0.045
0.065
0.075
0.105
0.125
0.145
0.135
0.145
0.155
0.115
0.115
0.065
0.035
-0.035
-0.075
-0.095
-0.125
-0.135
-0.135
-0.135
-0.135
-0.145
-0.145
-0.135
-0.125
-0.145
-0.115
-0.095
-0.105
-0.105
-0.115
-0.115
-0.105
-0.105
-0.115
-0.115
-0.105
-0.115
-0.125
-0.115
-0.125
-0.125
-0.115
-0.135
-0.115
-0.115
-0.135
-0.145
-0.135
-0.125
-0.125
-0.125
-0.125
-0.125
-0.135
-0.145
-0.125
-0.135
-0.135
-0.115
-0.115
-0.125
-0.125
-0.135
-0.125
-0.115
-0.125
-0.115
-0.115
-0.125
-0.125
-0.135
-0.135
-0.125
-0.125
-0.115
-0.115
-0.105
-0.085
-0.055
-0.045
-0.025
0.025
0.025
0.015
-0.005
-0.035
-0.095
-0.115
-0.125
-0.125
-0.115
-0.105
-0.085
-0.035
0.315
0.705
1.025
0.365
-0.295
-0.385
-0.235
-0.145
-0.135
-0.135
-0.135
-0.125
-0.125
-0.145
-0.135
-0.145
-0.135
-0.125
-0.125
-0.115
-0.105
-0.075
-0.075
-0.075
-0.075
-0.045
-0.025
-0.025
0.005
0.015
0.025
0.045
0.035
0.065
0.115
0.115
0.105
0.125
0.135
0.085
0.055
0.055
0.015
-0.035
-0.065
-0.125
-0.145
-0.175
-0.165
-0.165
-0.155
-0.165
-0.165
-0.145
-0.145
-0.135
-0.145
-0.135
-0.125
-0.135
-0.115
-0.115
-0.105
-0.115
-0.115
-0.105
-0.115
-0.115
-0.095
-0.125
-0.115
-0.125
-0.125
-0.125
-0.115
-0.135
-0.125
-0.125
-0.135
-0.145
-0.145
-0.125
-0.135
-0.135
-0.125
-0.115
-0.115
-0.125
-0.135
-0.145
-0.135
-0.115
-0.125
-0.135
-0.125
-0.135
-0.135
-0.115
-0.115
-0.115
-0.115
-0.105
-0.095
-0.105
-0.075
-0.045
-0.025
-0.025
0.015
0.035
0.025
0.015
-0.015
-0.035
-0.075
-0.095
-0.065
-0.065
-0.055
-0.035
0.025
0.275
0.675
0.885
0.345
-0.155
-0.235
-0.155
-0.105
-0.095
-0.085
-0.075
-0.085
-0.085
-0.085
-0.085
-0.095
-0.085
-0.085
-0.085
-0.065
-0.045
-0.055
-0.065
-0.045
-0.035
-0.015
-0.005
0.015
0.015
0.025
0.045
0.055
0.095
0.095
0.105
0.145
0.155
0.145
0.145
0.145
0.115
0.085
0.045
0.015
-0.055
-0.105
-0.135
-0.165
-0.185
-0.175
-0.205
-0.175
-0.175
-0.205
-0.175
-0.175
-0.155
-0.175
-0.185
-0.185
-0.165
-0.175
-0.185
-0.195
-0.155
-0.165
-0.175
-0.165
-0.175
-0.195
-0.185
-0.185
-0.185
-0.175
-0.175
-0.155
-0.155
-0.175
-0.165
-0.185
-0.165
-0.165
-0.175
-0.165
-0.155
-0.145
-0.165
-0.165
-0.145
-0.135
-0.185
-0.145
-0.145
-0.145
-0.155
-0.155
-0.165
-0.155
-0.135
-0.135
-0.155
-0.165
-0.135
-0.155
-0.125
-0.175
-0.155
-0.075
-0.075
-0.075
0.015
0.005
-0.005
-0.025
-0.085
-0.125
-0.135
-0.185
-0.175
-0.165
-0.125
-0.135
-0.105
0.185
0.785
1.225
0.315
-0.475
-0.465
-0.265
-0.145
-0.145
-0.145
-0.135
-0.155
-0.155
-0.135
-0.125
-0.125
-0.115
-0.115
-0.115
-0.095
-0.105
-0.085
-0.075
-0.065
-0.045
-0.035
-0.025
-0.025
-0.005
0.015
0.025
0.055
0.095
0.105
0.105
0.135
0.135
0.155
0.155
0.155
0.165
0.105
0.065
0.005
-0.065
-0.105
-0.135
-0.155
-0.155
-0.145
-0.165
-0.175
-0.175
-0.155
-0.175
-0.155
-0.145
-0.135
-0.145
-0.115
-0.125
-0.125
-0.135
-0.125
-0.135
-0.155
-0.125
-0.115
-0.135
-0.125
-0.135
-0.145
-0.135
-0.125
-0.145
-0.125
-0.145
-0.155
-0.145
-0.145
-0.145
-0.155
-0.135
-0.145
-0.135
-0.155
-0.145
-0.135
-0.145
-0.165
-0.125
-0.155
-0.145
-0.145
-0.135
-0.135
-0.135
-0.145
-0.125
-0.145
-0.125
-0.125
-0.135
-0.165
-0.125
-0.085
-0.065
-0.045
-0.055
0.005
0.025
0.025
0.025
-0.035
-0.125
-0.155
-0.155
-0.135
-0.135
-0.095
-0.135
-0.085
0.225
0.835
1.185
0.235
-0.435
-0.435
-0.225
-0.115
-0.145
-0.145
-0.105
-0.105
-0.105
-0.115
-0.095
-0.095
-0.095
-0.085
-0.095
-0.075
-0.055
-0.045
-0.045
-0.025
-0.005
-0.005
-0.005
0.025
0.045
0.065
0.085
0.115
0.125
0.145
0.165
0.175
0.205
0.205
0.235
0.235
0.195
0.155
0.075
0.075
0.025
-0.025
-0.075
-0.095
-0.125
-0.125
-0.165
-0.125
-0.135
-0.135
-0.125
-0.125
-0.115
-0.115
-0.095
-0.105
-0.095
-0.105
-0.115
-0.085
-0.085
-0.105
-0.105
-0.125
-0.115
-0.125
-0.115
-0.105
-0.145
-0.125
-0.125
-0.145
-0.125
-0.115
-0.135
-0.125
-0.125
-0.115
-0.135
-0.125
-0.105
-0.125
-0.115
-0.085
-0.105
-0.115
-0.105
-0.105
-0.115
-0.105
-0.085
-0.075
-0.095
-0.095
-0.095
-0.095
-0.085
-0.095
-0.095
-0.075
-0.085
-0.075
-0.035
-0.015
-0.015
0.055
0.095
0.085
0.055
0.025
-0.065
-0.105
-0.125
-0.115
-0.105
-0.055
-0.065
-0.055
0.315
0.945
1.375
0.385
-0.435
-0.435
-0.165
-0.085
-0.105
-0.085
-0.085
-0.085
-0.125
-0.085
-0.065
-0.085
-0.085
-0.065
-0.055
-0.045
-0.035
-0.015
-0.025
-0.015
-0.005
0.005
0.025
0.035
0.095
0.105
0.115
0.125
0.155
0.155
0.225
0.235
0.265
0.225
0.265
0.265
0.225
0.175
0.135
0.075
-0.005
-0.035
-0.085
-0.125
-0.135
-0.105
-0.125
-0.175
-0.135
-0.135
-0.125
-0.105
-0.135
-0.115
-0.095
-0.145
-0.085
-0.105
-0.105
-0.115
-0.115
-0.095
-0.105
-0.135
-0.125
-0.125
-0.145
-0.135
-0.125
-0.135
-0.145
-0.165
-0.125
-0.125
-0.155
-0.145
-0.145
-0.145
-0.145
-0.155
-0.155
-0.155
-0.145
-0.165
-0.155
-0.155
-0.155
-0.165
-0.175
-0.165
-0.155
-0.175
-0.175
-0.155
-0.175
-0.155
-0.155
-0.175
-0.155
-0.155
-0.165
-0.165
-0.155
-0.165
-0.135
-0.105
-0.075
-0.065
-0.025
0.025
0.005
-0.005
-0.025
-0.105
-0.145
-0.165
-0.175
-0.165
-0.145
-0.135
-0.105
0.035
0.675
1.325
0.555
-0.435
-0.565
-0.345
-0.135
-0.135
-0.155
-0.155
-0.165
-0.135
-0.155
-0.155
-0.125
-0.115
-0.125
-0.115
-0.105
-0.095
-0.075
-0.075
-0.055
-0.055
-0.035
-0.015
-0.005
0.045
0.045
0.055
0.075
0.135
0.135
0.155
0.175
0.195
0.215
0.205
0.235
0.205
0.155
0.095
0.055
0.005
-0.055
-0.115
-0.125
-0.115
-0.145
-0.155
-0.155
-0.145
-0.145
-0.185
-0.145
-0.115
-0.145
-0.115
-0.125
-0.135
-0.115
-0.145
-0.115
-0.115
-0.125
-0.125
-0.135
-0.125
-0.155
-0.155
-0.125
-0.135
-0.155
-0.155
-0.155
-0.135
-0.145
-0.165
-0.135
-0.145
-0.135
-0.155
-0.145
-0.145
-0.155
-0.145
-0.135
-0.135
-0.155
-0.155
-0.145
-0.135
-0.145
-0.135
-0.135
-0.135
-0.165
-0.145
-0.135
-0.125
-0.145
-0.125
-0.125
-0.125
-0.125
-0.135
-0.145
-0.085
-0.045
-0.045
-0.015
0.045
0.065
0.035
0.025
-0.015
-0.075
-0.125
-0.145
-0.135
-0.125
-0.105
-0.115
-0.085
0.245
0.965
1.515
0.375
-0.535
-0.485
-0.235
-0.105
-0.105
-0.115
-0.125
-0.105
-0.125
-0.095
-0.115
-0.075
-0.085
-0.085
-0.065
-0.065
-0.055
-0.045
-0.035
-0.025
-0.005
0.025
0.055
0.045
0.065
0.075
0.105
0.135
0.155
0.185
0.225
0.255
0.225
0.255
0.255
0.255
0.215
0.165
0.115
0.035
-0.015
-0.075
-0.125
-0.125
-0.125
-0.145
-0.155
-0.145
-0.145
-0.125
-0.125
-0.135
-0.135
-0.115
-0.125
-0.105
-0.125
-0.095
-0.115
-0.105
-0.105
-0.115
-0.105
-0.115
-0.115
-0.125
-0.125
-0.135
-0.115
-0.125
-0.125
-0.115
-0.135
-0.135
-0.125
-0.145
-0.135
-0.135
-0.125
-0.135
-0.115
-0.115
-0.125
-0.135
-0.125
-0.145
-0.115
-0.105
-0.115
-0.125
-0.125
-0.115
-0.105
-0.115
-0.105
-0.115
-0.105
-0.105
-0.115
-0.085
-0.115
-0.115
-0.085
-0.085
-0.085
-0.095
-0.055
-0.005
0.005
0.035
0.115
0.085
0.075
0.045
-0.045
-0.065
-0.105
-0.095
-0.085
-0.085
-0.055
-0.035
0.085
0.725
1.395
0.755
-0.335
-0.475
-0.235
-0.095
-0.085
-0.085
-0.085
-0.095
-0.065
-0.075
-0.075
-0.065
-0.065
-0.055
-0.075
-0.045
-0.025
-0.025
-0.005
-0.005
0.005
0.015
0.045
0.055
0.095
0.085
0.105
0.125
0.135
0.185
0.195
0.225
0.235
0.245
0.265
0.235
0.215
0.175
0.155
0.075
0.045
-0.015
-0.055
-0.095
-0.115
-0.105
-0.125
-0.135
-0.125
-0.095
-0.135
-0.115
-0.105
-0.095
-0.105
-0.095
-0.095
-0.085
-0.085
-0.095
-0.095
-0.075
-0.095
-0.095
-0.125
-0.115
-0.085
-0.085
-0.105
-0.075
-0.125
-0.125
-0.115
-0.125
-0.115
-0.095
-0.115
-0.095
-0.115
-0.105
-0.085
-0.135
-0.065
-0.095
-0.125
-0.075
-0.085
-0.085
-0.055
-0.095
-0.085
-0.065
-0.085
-0.045
-0.095
-0.085
-0.025
-0.045
-0.065
-0.015
-0.095
-0.075
-0.055
-0.015
-0.005
0.025
0.035
0.105
0.165
0.135
0.115
0.045
0.025
-0.035
-0.075
-0.055
-0.065
-0.075
-0.055
0.005
0.135
0.805
1.465
0.675
-0.375
-0.475
-0.245
-0.075
-0.105
-0.045
-0.075
-0.105
-0.105
-0.055
-0.085
-0.085
-0.075
-0.065
-0.045
-0.015
-0.075
-0.025
-0.005
0.005
0.015
0.045
0.045
0.055
0.055
0.105
0.135
0.115
0.145
0.195
0.195
0.245
0.245
0.255
0.285
0.245
0.225
0.205
0.115
0.085
0.005
-0.005
-0.065
-0.125
-0.115
-0.105
-0.135
-0.125
-0.135
-0.115
-0.105
-0.095
-0.105
-0.105
-0.085
-0.105
-0.095
-0.065
-0.075
-0.105
-0.095
-0.095
-0.075
-0.085
-0.115
-0.105
-0.095
-0.105
-0.075
-0.115
-0.105
-0.085
-0.115
-0.095
-0.105
-0.115
-0.105
-0.095
-0.105
-0.085
-0.105
-0.105
-0.105
-0.135
-0.105
-0.115
-0.125
-0.105
-0.125
-0.085
-0.135
-0.145
-0.105
-0.125
-0.145
-0.125
-0.155
-0.115
-0.115
-0.145
-0.125
-0.055
-0.055
-0.045
-0.005
0.055
0.015
0.015
-0.015
-0.065
-0.145
-0.155
-0.175
-0.135
-0.115
-0.115
-0.075
0.075
0.815
1.485
0.615
-0.475
-0.545
-0.295
-0.115
-0.125
-0.145
-0.115
-0.155
-0.115
-0.145
-0.135
-0.115
-0.115
-0.105
-0.085
-0.105
-0.095
-0.055
-0.065
-0.055
-0.065
0.005
0.025
0.005
0.035
0.055
0.055
0.105
0.135
0.135
0.175
0.195
0.185
0.195
0.215
0.215
0.185
0.135
0.075
0.005
-0.045
-0.085
-0.125
-0.175
-0.155
-0.185
-0.185
-0.185
-0.205
-0.155
-0.175
-0.155
-0.175
-0.175
-0.145
-0.165
-0.155
-0.155
-0.175
-0.145
-0.145
-0.145
-0.175
-0.175
-0.175
-0.165
-0.195
-0.155
-0.155
-0.155
-0.165
-0.185
-0.185
-0.175
-0.185
-0.135
-0.175
-0.175
-0.175
-0.175
-0.185
-0.155
-0.185
-0.175
-0.175
-0.155
-0.145
-0.165
-0.185
-0.165
-0.165
-0.155
-0.145
-0.165
-0.155
-0.165
-0.165
-0.155
-0.165
-0.155
-0.115
-0.085
-0.055
-0.055
0.015
0.035
0.015
0.005
-0.075
-0.115
-0.145
-0.155
-0.135
-0.145
-0.115
-0.105
-0.105
0.315
0.995
1.305
0.235
-0.515
-0.485
-0.195
-0.095
-0.105
-0.135
-0.135
-0.125
-0.125
-0.125
-0.115
-0.115
-0.105
-0.115
-0.105
-0.065
-0.095
-0.075
-0.065
-0.045
-0.035
-0.015
-0.015
0.035
0.035
0.055
0.075
0.105
0.105
0.135
0.145
0.175
0.215
0.215
0.215
0.205
0.185
0.125
0.085
0.015
-0.055
-0.095
-0.105
-0.145
-0.165
-0.175
-0.195
-0.165
-0.185
-0.185
-0.145
-0.155
-0.165
-0.145
-0.165
-0.145
-0.145
-0.155
-0.165
-0.135
-0.145
-0.145
-0.175
-0.155
-0.165
-0.175
-0.155
-0.155
-0.165
-0.175
-0.185
-0.175
-0.155
-0.165
-0.155
-0.165
-0.155
-0.175
-0.175
-0.145
-0.165
-0.185
-0.135
-0.155
-0.165
-0.175
-0.165
-0.135
-0.185
-0.165
-0.115
-0.155
-0.165
-0.145
-0.165
-0.155
-0.135
-0.155
-0.125
-0.145
-0.125
-0.065
-0.065
-0.035
0.025
0.035
0.045
0.065
-0.005
-0.065
-0.135
-0.135
-0.135
-0.165
-0.095
-0.085
-0.045
0.235
0.965
1.505
0.295
-0.545
-0.445
-0.145
-0.125
-0.155
-0.125
-0.095
-0.135
-0.065
-0.085
-0.075
-0.095
-0.075
-0.075
-0.115
-0.055
-0.025
-0.035
-0.025
0.035
0.015
0.015
0.055
0.055
0.075
0.105
0.125
0.135
0.135
0.185
0.215
0.235
0.255
0.245
0.235
0.225
0.215
0.155
0.105
0.045
0.005
-0.095
-0.075
-0.105
-0.095
-0.215
-0.135
-0.135
-0.135
-0.145
-0.135
-0.135
-0.155
-0.115
-0.125
-0.135
-0.135
-0.105
-0.155
-0.095
-0.145
-0.165
-0.145
-0.135
-0.165
-0.145
-0.155
-0.135
-0.185
-0.155
-0.205
-0.145
-0.125
-0.135
-0.155
-0.135
-0.145
-0.155
-0.165
-0.135
-0.225
-0.125
-0.125
-0.135
-0.135
-0.175
-0.145
-0.155
-0.135
-0.135
-0.115
-0.135
-0.145
-0.145
-0.135
-0.105
-0.165
-0.105
-0.095
-0.085
-0.065
-0.065
-0.035
0.075
0.105
0.035
0.055
-0.035
-0.075
-0.115
-0.135
-0.145
-0.115
-0.095
-0.065
-0.075
0.295
0.985
1.295
0.065
-0.525
-0.415
-0.165
-0.105
-0.085
-0.105
-0.125
-0.135
-0.065
-0.155
-0.145
-0.075
-0.075
-0.075
-0.105
-0.065
-0.105
-0.055
-0.055
0.005
-0.005
-0.005
0.015
0.005
0.065
0.095
0.075
0.125
0.155
0.165
0.165
0.195
0.205
0.255
0.205
0.215
0.215
0.135
0.105
0.075
0.015
-0.035
-0.085
-0.115
-0.105
-0.175
-0.145
-0.145
-0.145
-0.125
-0.125
-0.155
-0.125
-0.145
-0.135
-0.125
-0.135
-0.135
-0.145
-0.135
-0.145
-0.145
-0.155
-0.145
-0.165
-0.145
-0.145
-0.145
-0.155
-0.175
-0.165
-0.165
-0.185
-0.165
-0.185
-0.145
-0.185
-0.175
-0.185
-0.175
-0.175
-0.155
-0.185
-0.205
-0.175
-0.185
-0.155
-0.185
-0.185
-0.155
-0.165
-0.195
-0.175
-0.185
-0.155
-0.155
-0.165
-0.105
-0.105
-0.065
-0.065
0.025
0.005
-0.005
-0.015
-0.105
-0.165
-0.175
-0.165
-0.185
-0.155
-0.135
-0.135
-0.055
0.485
1.265
0.855
-0.295
-0.595
-0.415
-0.205
-0.145
-0.135
-0.155
-0.145
-0.155
-0.145
-0.125
-0.145
-0.115
-0.105
-0.115
-0.095
-0.125
-0.085
-0.095
-0.065
-0.025
-0.035
-0.015
0.005
-0.015
0.015
0.065
0.075
0.085
0.135
0.135
0.175
0.195
0.185
0.205
0.205
0.205
0.145
0.115
0.055
-0.035
-0.065
-0.115
-0.125
-0.155
-0.165
-0.185
-0.175
-0.195
-0.165
-0.195
-0.155
-0.135
-0.135
-0.165
-0.175
-0.155
-0.135
-0.135
-0.135
-0.135
-0.145
-0.155
-0.155
-0.185
-0.165
-0.135
-0.155
-0.135
-0.175
-0.155
-0.165
-0.185
-0.145
-0.155
-0.145
-0.125
-0.135
-0.155
-0.125
-0.155
-0.125
-0.135
-0.135
-0.105
-0.125
-0.115
-0.115
-0.145
-0.115
-0.125
-0.135
-0.115
-0.115
-0.105
-0.105
-0.095
-0.035
-0.035
0.015
0.055
0.065
0.065
0.035
-0.025
-0.085
-0.115
-0.105
-0.085
-0.115
-0.135
-0.075
-0.065
0.335
1.085
1.515
0.215
-0.575
-0.515
-0.195
-0.105
-0.095
-0.095
-0.105
-0.085
-0.105
-0.105
-0.115
-0.085
-0.085
-0.065
-0.055
-0.035
-0.065
-0.045
-0.015
-0.015
0.005
0.045
0.045
0.065
0.085
0.105
0.115
0.135
0.175
0.215
0.225
0.265
0.285
0.265
0.295
0.265
0.255
0.205
0.125
0.065
0.015
-0.045
-0.055
-0.105
-0.105
-0.135
-0.125
-0.135
-0.125
-0.105
-0.115
-0.105
-0.085
-0.115
-0.095
-0.065
-0.065
-0.045
-0.065
-0.065
-0.035
-0.065
-0.055
-0.055
-0.045
-0.065
-0.075
-0.075
-0.055
-0.045
-0.075
-0.045
-0.055
-0.065
-0.055
-0.065
-0.055
-0.045
-0.055
-0.045
-0.045
-0.045
-0.035
-0.045
-0.035
-0.025
-0.025
-0.015
-0.035
-0.025
-0.025
-0.025
-0.025
-0.005
-0.025
-0.015
0.025
0.025
0.045
0.075
0.115
0.105
0.095
0.055
0.005
-0.025
-0.055
-0.085
-0.065
-0.065
-0.045
-0.015
-0.025
0.395
0.965
0.775
-0.135
-0.485
-0.375
-0.175
-0.105
-0.105
-0.115
-0.145
-0.115
-0.105
-0.145
-0.125
-0.085
-0.095
-0.105
-0.105
-0.075
-0.075
-0.065
-0.045
-0.045
-0.035
-0.025
-0.005
0.015
0.045
0.045
0.095
0.095
0.125
0.155
0.165
0.185
0.205
0.205
0.215
0.205
0.165
0.125
0.045
0.005
-0.035
-0.095
-0.105
-0.105
-0.155
-0.155
-0.185
-0.135
-0.145
-0.125
-0.125
-0.135
-0.115
-0.105
-0.115
-0.115
-0.115
-0.135
-0.105
-0.095
-0.115
-0.135
-0.145
-0.155
-0.145
-0.145
-0.125
-0.155
-0.155
-0.155
-0.145
-0.145
-0.145
-0.165
-0.185
-0.145
-0.145
-0.145
-0.175
-0.135
-0.175
-0.155
-0.135
-0.145
-0.135
-0.155
-0.175
-0.175
-0.155
-0.135
-0.145
-0.135
-0.115
-0.115
-0.085
-0.045
-0.035
-0.015
0.045
0.045
0.005
0.015
-0.055
-0.095
-0.125
-0.135
-0.125
-0.105
-0.095
-0.085
-0.045
0.415
1.065
0.995
-0.195
-0.605
-0.445
-0.195
-0.095
-0.105
-0.095
-0.075
-0.095
-0.075
-0.095
-0.075
-0.065
-0.085
-0.055
-0.035
-0.035
-0.075
0.015
-0.015
-0.045
-0.015
0.015
0.055
0.065
0.075
0.055
0.125
0.155
0.175
0.185
0.185
0.235
0.225
0.245
0.265
0.235
0.175
0.135
0.105
0.015
-0.075
-0.045
-0.085
-0.105
-0.115
-0.105
-0.085
-0.165
-0.205
-0.105
-0.105
-0.105
-0.115
-0.085
-0.105
-0.075
-0.075
-0.095
-0.095
-0.025
-0.085
-0.135
-0.065
-0.095
-0.055
-0.135
-0.155
-0.075
-0.075
-0.135
-0.075
-0.125
-0.135
-0.135
-0.085
-0.075
-0.175
-0.075
-0.085
-0.115
-0.035
-0.075
-0.105
-0.125
-0.105
-0.075
-0.075
-0.085
-0.115
-0.075
-0.075
0.085
-0.185
-0.155
-0.065
-0.035
-0.015
0.125
0.115
-0.085
0.075
0.075
0.045
0.045
-0.005
-0.015
-0.025
0.005
-0.175
-0.095
-0.025
0.045
0.145
0.685
1.365
0.605
-0.465
-0.535
-0.275
-0.035
-0.045
-0.055
-0.075
-0.055
-0.085
-0.065
-0.025
-0.065
-0.055
-0.005
-0.025
-0.015
0.005
0.015
0.025
0.055
0.065
0.085
0.095
0.285
0.165
0.095
0.105
0.165
0.205
0.255
0.265
0.295
0.315
0.365
0.305
0.285
0.245
0.235
0.175
0.095
0.025
-0.025
-0.035
-0.075
-0.095
-0.095
-0.125
-0.095
-0.125
-0.115
-0.095
-0.125
-0.095
-0.095
-0.095
-0.075
-0.085
-0.085
-0.045
-0.075
-0.075
-0.075
-0.065
-0.055
-0.075
-0.105
-0.085
-0.095
-0.075
-0.105
-0.105
-0.115
-0.075
-0.075
-0.085
-0.085
-0.075
-0.095
-0.105
-0.085
-0.065
-0.085
-0.105
-0.085
-0.075
-0.085
-0.115
-0.085
-0.055
-0.075
-0.085
-0.065
-0.075
-0.095
-0.065
-0.075
-0.065
-0.065
-0.045
0.015
-0.005
0.015
0.085
0.135
0.105
0.095
0.035
-0.005
-0.035
-0.065
-0.065
-0.095
-0.065
-0.025
-0.015
0.145
0.805
1.495
0.635
-0.425
-0.485
-0.225
-0.045
-0.035
-0.065
-0.015
-0.035
-0.045
-0.035
-0.035
-0.025
-0.025
0.005
-0.015
-0.015
0.005
0.025
0.015
0.015
0.055
0.045
0.065
0.085
0.085
0.125
0.145
0.135
0.185
0.195
0.245
0.265
0.275
0.295
0.285
0.275
0.225
0.195
0.125
0.025
-0.005
-0.065
-0.115
-0.125
-0.165
-0.185
-0.175
-0.195
-0.185
-0.145
-0.185
-0.165
-0.155
-0.165
-0.175
-0.185
-0.145
-0.145
-0.155
-0.135
-0.155
-0.155
-0.165
-0.175
-0.195
-0.175
-0.175
-0.185
-0.185
-0.195
-0.185
-0.185
-0.185
-0.175
-0.185
-0.175
-0.175
-0.195
-0.175
-0.175
-0.175
-0.165
-0.175
-0.165
-0.165
-0.165
-0.165
-0.175
-0.165
-0.185
-0.155
-0.175
-0.145
-0.165
-0.165
-0.145
-0.155
-0.145
-0.155
-0.125
-0.095
-0.055
-0.055
-0.035
0.055
0.065
0.005
-0.005
-0.055
-0.095
-0.115
-0.165
-0.145
-0.135
-0.135
-0.095
-0.035
0.275
0.935
1.445
0.185
-0.645
-0.565
-0.255
-0.105
-0.125
-0.095
-0.125
-0.115
-0.105
-0.095
-0.095
-0.085
-0.095
-0.095
-0.085
-0.085
-0.065
-0.035
-0.025
-0.015
-0.025
-0.005
0.025
0.025
0.085
0.075
0.075
0.155
0.175
0.195
0.215
0.245
0.275
0.275
0.275
0.285
0.265
0.205
0.155
0.075
0.005
-0.035
-0.065
-0.075
-0.095
-0.155
-0.145
-0.145
-0.135
-0.145
-0.155
-0.145
-0.095
-0.135
-0.105
-0.105
-0.075
-0.085
-0.105
-0.085
-0.085
-0.085
-0.085
-0.105
-0.115
-0.125
-0.115
-0.095
-0.115
-0.085
-0.095
-0.095
-0.115
-0.105
-0.105
-0.095
-0.065
-0.095
-0.155
-0.085
-0.085
-0.085
-0.085
-0.065
-0.085
-0.095
-0.095
-0.095
-0.055
-0.075
-0.065
-0.085
-0.045
-0.085
-0.085
-0.055
-0.035
-0.065
0.015
0.045
0.045
0.085
0.175
0.125
0.105
0.065
0.025
-0.035
-0.035
-0.075
-0.055
-0.045
-0.025
-0.015
0.065
0.375
1.065
1.395
0.035
-0.615
-0.395
-0.135
-0.015
-0.015
-0.065
-0.035
-0.065
-0.035
-0.065
-0.015
-0.005
-0.005
-0.025
-0.025
0.005
0.015
-0.005
0.025
0.035
0.055
0.075
0.115
0.105
0.095
0.135
0.165
0.175
0.185
0.225
0.275
0.255
0.275
0.295
0.315
0.265
0.255
0.225
0.145
0.075
-0.005
-0.015
-0.045
-0.105
-0.035
-0.055
-0.065
-0.065
-0.085
-0.075
-0.055
-0.045
-0.035
-0.015
-0.045
-0.005
-0.045
-0.025
-0.015
-0.045
0.005
-0.045
-0.035
-0.045
-0.055
-0.045
-0.055
-0.045
-0.055
-0.075
-0.055
-0.045
-0.085
-0.055
-0.065
-0.095
-0.075
-0.065
-0.085
-0.095
-0.065
-0.095
-0.085
-0.125
-0.085
-0.105
-0.095
-0.075
-0.105
-0.085
-0.115
-0.115
-0.085
-0.125
-0.105
-0.085
-0.075
-0.025
0.005
0.005
0.045
0.125
0.085
0.045
0.055
0.005
-0.085
-0.095
-0.075
-0.075
-0.075
-0.075
-0.005
0.015
0.535
1.275
1.035
-0.205
-0.615
-0.405
-0.095
-0.045
-0.025
-0.015
-0.075
-0.025
-0.055
-0.075
0.005
-0.015
-0.045
-0.015
0.015
-0.015
0.005
0.025
0.015
0.055
0.005
0.145
0.095
0.085
0.165
0.125
0.125
0.255
0.145
0.285
0.355
0.335
0.325
0.285
0.255
0.325
0.265
0.255
0.155
0.135
0.045
-0.035
-0.005
-0.035
-0.025
-0.075
-0.065
-0.115
-0.065
-0.065
-0.055
-0.075
-0.055
-0.065
-0.045
-0.055
-0.055
-0.045
-0.085
-0.005
0.015
-0.055
-0.105
-0.085
-0.025
-0.135
-0.115
-0.095
-0.085
-0.095
-0.065
-0.085
-0.105
-0.095
-0.115
-0.095
-0.115
-0.115
-0.105
-0.115
-0.125
-0.135
-0.155
-0.105
-0.085
-0.095
-0.105
-0.135
-0.105
-0.095
-0.115
-0.115
-0.105
-0.155
-0.125
-0.085
-0.025
-0.015
-0.015
0.025
0.075
0.035
0.075
-0.005
-0.055
-0.085
-0.115
-0.145
-0.115
-0.115
-0.085
-0.095
0.005
0.655
1.345
0.885
-0.285
-0.605
-0.435
-0.165
-0.085
-0.125
-0.125
-0.135
-0.135
-0.135
-0.125
-0.105
-0.115
-0.105
-0.105
-0.105
-0.095
-0.075
-0.075
-0.065
-0.045
-0.035
-0.025
-0.015
-0.015
0.055
0.055
0.085
0.105
0.115
0.095
0.175
0.215
0.215
0.205
0.225
0.205
0.165
0.115
0.075
-0.005
-0.075
-0.085
-0.125
-0.145
-0.155
-0.195
-0.165
-0.165
-0.205
-0.165
-0.135
-0.165
-0.165
-0.155
-0.135
-0.145
-0.155
-0.145
-0.125
-0.125
-0.145
-0.145
-0.155
-0.165
-0.155
-0.145
-0.155
-0.185
-0.165
-0.165
-0.165
-0.185
-0.195
-0.175
-0.175
-0.175
-0.175
-0.185
-0.175
-0.175
-0.185
-0.165
-0.155
-0.165
-0.175
-0.175
-0.155
-0.155
-0.185
-0.155
-0.155
-0.135
-0.155
-0.155
-0.135
-0.115
-0.095
-0.045
-0.015
0.025
0.045
0.025
0.035
0.015
-0.075
-0.135
-0.155
-0.155
-0.145
-0.145
-0.115
-0.055
0.245
0.855
1.255
0.135
-0.635
-0.565
-0.245
-0.135
-0.155
-0.155
-0.135
-0.145
-0.155
-0.145
-0.135
-0.135
-0.125
-0.125
-0.115
-0.115
-0.105
-0.095
-0.075
-0.055
-0.045
-0.025
-0.005
-0.015
0.035
0.035
0.085
0.105
0.115
0.145
0.185
0.185
0.185
0.205
0.225
0.195
0.205
0.125
0.065
0.005
-0.055
-0.105
-0.125
-0.135
-0.165
-0.155
-0.175
-0.175
-0.185
-0.165
-0.145
-0.135
-0.145
-0.135
-0.145
-0.125
-0.175
-0.155
-0.115
-0.145
-0.135
-0.135
-0.175
-0.235
-0.185
-0.125
-0.185
-0.145
-0.145
-0.135
-0.155
-0.135
-0.165
-0.155
-0.145
-0.135
-0.125
-0.145
-0.125
-0.135
-0.165
-0.145
-0.125
-0.135
-0.135
-0.145
-0.125
-0.155
-0.145
-0.145
-0.135
-0.145
-0.145
-0.125
-0.155
-0.155
-0.075
-0.055
-0.045
0.055
0.065
0.035
-0.015
-0.025
-0.135
-0.175
-0.215
-0.205
-0.185
-0.125
-0.135
-0.135
0.195
0.845
1.225
-0.005
-0.705
-0.615
-0.275
-0.245
-0.175
-0.215
-0.185
-0.185
-0.215
-0.195
-0.175
-0.215
-0.195
-0.145
-0.145
-0.155
-0.165
-0.175
-0.125
-0.125
-0.105
-0.085
-0.065
-0.065
-0.065
-0.035
-0.035
0.035
0.055
0.055
0.085
0.085
0.095
0.135
0.125
0.115
0.115
0.045
0.015
-0.035
-0.105
-0.145
-0.185
-0.235
-0.225
-0.235
-0.245
-0.255
-0.245
-0.235
-0.235
-0.265
-0.215
-0.245
-0.245
-0.215
-0.225
-0.205
-0.195
-0.215
-0.245
-0.255
-0.215
-0.235
-0.255
-0.215
-0.225
-0.215
-0.245
-0.225
-0.265
-0.225
-0.235
-0.225
-0.235
-0.215
-0.225
-0.225
-0.215
-0.205
-0.225
-0.215
-0.205
-0.215
-0.205
-0.205
-0.205
-0.225
-0.205
-0.205
-0.205
-0.205
-0.215
-0.175
-0.125
-0.145
-0.095
-0.045
-0.045
-0.035
-0.025
-0.085
-0.135
-0.195
-0.215
-0.195
-0.195
-0.185
-0.175
-0.165
0.095
0.615
0.975
0.035
-0.595
-0.565
-0.365
-0.235
-0.215
-0.215
-0.215
-0.215
-0.235
-0.205
-0.215
-0.215
-0.205
-0.185
-0.195
-0.185
-0.185
-0.175
-0.175
-0.165
-0.145
-0.155
-0.125
-0.095
-0.075
-0.065
-0.085
-0.035
0.005
0.005
0.035
0.055
0.055
0.065
0.045
0.065
0.045
0.005
-0.045
-0.115
-0.145
-0.215
-0.225
-0.235
-0.255
-0.275
-0.265
-0.255
-0.245
-0.255
-0.245
-0.285
-0.235
-0.225
-0.225
-0.225
-0.225
-0.235
-0.235
-0.245
-0.195
-0.245
-0.225
-0.235
-0.215
-0.215
-0.215
-0.215
-0.235
-0.235
-0.255
-0.175
-0.195
-0.215
-0.235
-0.205
-0.175
-0.155
-0.155
-0.135
-0.175
-0.135
-0.135
-0.155
-0.085
-0.125
-0.165
-0.105
-0.015
-0.025
0.045
0.075
0.095
0.085
0.075
0.095
0.015
-0.095
-0.095
-0.095
-0.065
-0.075
-0.045
-0.015
0.345
0.955
1.235
0.165
-0.515
-0.405
-0.195
-0.055
-0.055
-0.035
-0.045
-0.075
-0.045
-0.035
-0.025
-0.015
-0.015
-0.015
0.005
-0.015
0.015
0.015
0.025
0.075
0.065
0.085
0.105
0.135
0.135
0.175
0.185
0.205
0.215
0.215
0.245
0.275
0.295
0.285
0.275
0.265
0.225
0.215
0.135
0.085
0.035
0.035
-0.035
-0.045
-0.015
-0.015
-0.025
-0.025
-0.005
-0.005
0.005
0.015
0.025
0.015
-0.025
0.045
0.055
0.055
0.045
0.055
0.045
0.045
0.045
0.045
0.045
0.075
0.055
0.025
0.055
0.045
0.035
0.045
0.035
0.035
0.025
0.055
0.035
0.005
0.015
0.025
0.025
-0.005
0.005
0.015
0.025
0.015
-0.005
0.015
0.095
0.055
0.095
0.185
0.185
0.195
0.145
0.105
0.055
-0.015
-0.035
-0.035
-0.035
-0.005
0.005
0.055
0.325
0.895
1.395
0.465
-0.425
-0.455
-0.215
-0.005
0.075
0.065
0.045
0.035
0.085
0.115
0.085
0.055
0.085
0.065
0.065
0.135
0.165
0.185
0.125
0.135
0.155
0.195
0.175
0.225
0.225
0.245
0.265
0.285
0.315
0.325
0.335
0.285
0.365
0.385
0.305
0.305
0.275
0.255
0.225
0.135
0.095
0.075
0.055
0.025
0.015
0.025
0.015
0.015
0.005
0.015
0.005
0.045
0.055
0.055
0.055
0.035
0.035
0.095
0.065
0.065
0.055
0.065
0.065
0.055
0.055
0.045
0.025
0.035
0.055
0.045
0.025
0.035
0.025
0.025
0.045
0.025
0.025
0.025
0.025
0.045
0.045
0.035
0.005
0.035
0.035
0.055
0.055
0.085
0.055
0.025
0.065
0.125
0.115
0.185
0.255
0.245
0.205
0.235
0.185
0.125
0.065
0.035
0.045
0.045
0.075
0.085
0.115
0.495
1.165
1.195
-0.015
-0.445
-0.275
-0.035
0.045
0.045
0.065
0.045
0.035
0.055
0.015
0.055
0.055
0.075
0.145
0.145
0.035
0.115
0.125
0.205
0.195
0.205
0.235
0.235
0.235
0.265
0.295
0.315
0.315
0.335
0.385
0.385
0.395
0.425
0.405
0.395
0.375
0.365
0.315
0.285
0.215
0.155
0.115
0.085
0.055
0.045
0.045
0.015
0.025
0.025
0.035
0.045
0.035
0.055
0.065
0.065
0.045
0.065
0.065
0.075
0.065
0.065
0.055
0.045
0.035
0.045
0.045
0.025
0.025
0.005
0.015
0.015
0.015
0.025
0.035
0.015
0.035
0.015
0.025
0.025
0.025
0.035
0.045
0.035
0.005
0.015
0.025
0.025
0.045
0.035
0.025
0.015
0.015
0.015
0.045
0.015
0.015
0.045
0.095
0.095
0.105
0.185
0.225
0.215
0.165
0.205
0.125
0.055
-0.035
-0.005
-0.005
0.005
0.045
0.045
0.305
0.895
1.285
0.255
-0.495
-0.405
-0.165
-0.025
-0.015
-0.015
-0.065
-0.125
-0.075
0.065
0.015
0.055
0.025
0.035
0.005
0.085
0.075
0.065
0.065
0.095
0.125
0.115
0.115
0.115
0.155
0.195
0.225
0.235
0.205
0.215
0.255
0.285
0.205
0.285
0.285
0.275
0.255
0.255
0.175
0.125
0.075
0.045
0.045
0.015
0.005
0.005
-0.005
-0.025
-0.005
0.035
0.005
0.025
0.045
0.035
0.035
0.055
0.055
0.045
0.055
0.055
0.045
0.045
0.025
0.025
0.025
0.025
0.015
-0.005
0.015
0.005
0.005
-0.005
-0.015
-0.015
-0.015
-0.025
-0.045
-0.035
-0.065
-0.065
-0.075
-0.085
-0.075
-0.085
-0.045
-0.095
-0.145
-0.135
-0.145
-0.145
-0.145
-0.155
-0.165
-0.155
-0.185
-0.175
-0.215
-0.175
-0.175
-0.155
-0.155
-0.125
-0.135
-0.085
-0.055
-0.045
-0.065
-0.115
-0.195
-0.245
-0.275
-0.285
-0.265
-0.255
-0.235
-0.145
0.375
0.945
0.265
-0.595
-0.705
-0.525
-0.315
-0.305
-0.315
-0.315
-0.355
-0.345
-0.305
-0.355
-0.355
-0.335
-0.275
-0.335
-0.385
-0.325
-0.295
-0.295
-0.285
-0.295
-0.265
-0.265
-0.295
-0.225
-0.185
-0.205
-0.165
-0.145
-0.135
-0.105
-0.115
-0.075
-0.055
-0.045
-0.065
-0.085
-0.135
-0.195
-0.235
-0.325
-0.365
-0.375
-0.385
-0.435
-0.445
-0.445
-0.475
-0.465
-0.475
-0.465
-0.435
-0.445
-0.455
-0.455
-0.475
-0.465
-0.465
-0.435
-0.475
-0.445
-0.465
-0.475
-0.505
-0.495
-0.485
-0.515
-0.505
-0.505
-0.495
-0.515
-0.555
-0.515
-0.515
-0.525
-0.495
-0.535
-0.545
-0.515
-0.545
-0.555
-0.535
-0.525
-0.485
-0.535
-0.505
-0.505
-0.515
-0.525
-0.515
-0.505
-0.495
-0.535
-0.515
-0.515
-0.535
-0.515
-0.495
-0.535
-0.505
-0.495
-0.505
-0.415
-0.455
-0.385
-0.305
-0.325
-0.315
-0.285
-0.325
-0.435
-0.515
-0.505
-0.525
-0.525
-0.505
-0.455
-0.455
-0.155
0.365
0.875
-0.255
-1.015
-0.905
-0.665
-0.495
-0.475
-0.535
-0.505
-0.465
-0.505
-0.475
-0.495
-0.505
-0.485
-0.475
-0.455
-0.465
-0.435
-0.395
-0.445
-0.405
-0.385
-0.375
-0.375
-0.345
-0.335
-0.295
-0.295
-0.275
-0.245
-0.255
-0.205
-0.175
-0.185
-0.155
-0.135
-0.145
-0.185
-0.205
-0.245
-0.255
-0.355
-0.395
-0.435
-0.455
-0.475
-0.485
-0.465
-0.485
-0.485
-0.485
-0.465
-0.465
-0.485
-0.505
-0.435
-0.435
-0.415
-0.455
-0.455
-0.425
-0.425
-0.445
-0.425
-0.435
-0.445
-0.425
-0.425
-0.455
-0.435
-0.445
-0.425
-0.445
-0.445
-0.405
-0.415
-0.425
-0.435
-0.415
-0.425
-0.395
-0.405
-0.425
-0.405
-0.425
-0.345
-0.395
-0.385
-0.365
-0.365
-0.355
-0.335
-0.345
-0.345
-0.335
-0.325
-0.335
-0.315
-0.335
-0.245
-0.195
-0.205
-0.165
-0.105
-0.095
-0.105
-0.125
-0.175
-0.245
-0.295
-0.335
-0.275
-0.265
-0.255
-0.245
-0.135
0.425
1.065
0.415
-0.625
-0.765
-0.505
-0.275
-0.265
-0.265
-0.265
-0.275
-0.265
-0.245
-0.255
-0.215
-0.245
-0.245
-0.225
-0.235
-0.195
-0.215
-0.175
-0.165
-0.135
-0.135
-0.125
-0.095
-0.085
-0.045
-0.085
-0.045
0.025
0.045
0.075
0.065
0.095
0.105
0.085
0.115
0.085
0.065
0.015
-0.045
-0.085
-0.115
-0.155
-0.185
-0.205
-0.215
-0.235
-0.245
-0.215
-0.225
-0.215
-0.205
-0.195
-0.195
-0.185
-0.185
-0.185
-0.185
-0.175
-0.165
-0.165
-0.185
-0.175
-0.185
-0.175
-0.185
-0.195
-0.225
-0.205
-0.185
-0.175
-0.215
-0.175
-0.185
-0.175
-0.185
-0.175
-0.175
-0.195
-0.205
-0.165
-0.155
-0.165
-0.175
-0.185
-0.155
-0.165
-0.165
-0.175
-0.145
-0.135
-0.155
-0.165
-0.155
-0.135
-0.135
-0.145
-0.145
-0.135
-0.105
-0.125
-0.055
-0.055
-0.045
0.055
0.045
0.035
0.015
-0.045
-0.105
-0.145
-0.165
-0.145
-0.145
-0.135
-0.105
-0.065
0.265
0.835
1.165
0.125
-0.635
-0.545
-0.285
-0.115
-0.115
-0.115
-0.105
-0.125
-0.125
-0.115
-0.095
-0.105
-0.095
-0.075
-0.105
-0.095
-0.065
-0.045
-0.025
-0.025
-0.005
0.025
0.025
0.045
0.055
0.065
0.095
0.115
0.165
0.155
0.145
0.195
0.215
0.225
0.225
0.225
0.195
0.165
0.105
0.045
0.025
-0.045
-0.055
-0.085
-0.105
-0.115
-0.145
-0.135
-0.115
-0.125
-0.115
-0.105
-0.105
-0.105
-0.115
-0.115
-0.095
-0.065
-0.085
-0.095
-0.105
-0.105
-0.115
-0.115
-0.115
-0.095
-0.105
-0.105
-0.095
-0.105
-0.135
-0.125
-0.115
-0.115
-0.105
-0.115
-0.115
-0.115
-0.135
-0.135
-0.115
-0.125
-0.115
-0.115
-0.145
-0.115
-0.125
-0.145
-0.135
-0.145
-0.135
-0.125
-0.155
-0.125
-0.135
-0.125
-0.115
-0.125
-0.095
-0.045
-0.065
-0.015
0.035
0.065
0.055
0.035
0.005
-0.055
-0.125
-0.135
-0.135
-0.105
-0.105
-0.095
-0.065
0.025
0.545
1.145
0.805
-0.185
-0.635
-0.465
-0.175
-0.055
-0.055
-0.095
-0.065
-0.085
-0.105
-0.055
-0.095
-0.065
-0.055
-0.065
-0.055
-0.015
-0.015
-0.035
0.025
0.015
0.035
0.055
0.045
0.055
0.105
0.095
0.085
0.115
0.145
0.155
0.185
0.325
0.265
0.255
0.155
0.425
0.395
0.175
0.145
0.155
0.135
0.095
0.095
0.075
0.065
0.055
0.055
0.045
0.065
0.055
0.075
0.115
0.275
0.195
0.055
-0.035
-0.015
0.055
0.115
0.085
0.095
0.085
0.065
0.085
0.075
0.065
0.075
0.055
0.055
0.045
0.045
0.025
0.045
0.035
0.045
0.055
0.055
0.065
0.035
0.035
0.055
0.045
0.065
0.035
0.055
0.035
0.055
0.055
0.065
0.055
0.115
0.105
0.255
0.045
-0.065
0.005
0.115
0.245
0.115
0.215
0.295
0.225
0.175
0.175
0.105
0.105
0.085
0.045
0.055
0.035
0.035
0.095
0.135
0.615
1.265
1.365
0.015
-0.455
-0.275
0.015
0.085
0.075
0.065
0.065
0.075
0.065
0.075
0.105
0.095
0.095
0.095
0.105
0.105
0.125
0.145
0.165
0.155
0.165
0.165
0.185
0.215
0.235
0.225
0.245
0.285
0.305
0.305
0.355
0.375
0.375
0.345
0.365
0.345
0.315
0.275
0.215
0.165
0.155
0.075
0.025
0.055
0.045
0.035
0.025
0.015
0.015
0.005
0.035
0.035
0.045
0.035
0.045
0.075
0.085
0.045
0.065
0.055
0.065
0.085
0.065
0.035
0.025
-0.005
0.085
0.075
0.065
0.075
0.075
0.025
0.055
0.095
0.095
0.035
-0.005
0.065
0.065
0.085
0.075
0.025
0.095
0.105
0.075
0.105
0.105
0.105
0.095
0.095
0.115
0.095
0.075
0.075
0.105
0.105
0.105
0.105
0.155
0.175
0.175
0.215
0.255
0.255
0.265
0.205
0.115
0.105
0.035
0.085
0.095
0.175
0.065
0.025
0.225
0.625
1.275
1.155
-0.125
-0.445
-0.235
0.015
0.065
0.055
0.045
0.075
0.075
0.055
0.035
0.065
0.065
0.055
0.085
0.085
0.125
0.125
0.155
0.125
0.105
0.125
0.155
0.195
0.215
0.255
0.245
0.245
0.275
0.265
0.325
0.375
0.365
0.355
0.365
0.325
0.325
0.265
0.265
0.225
0.155
0.115
0.085
0.045
0.015
-0.005
0.035
0.045
0.015
0.045
0.025
0.005
0.055
0.045
0.035
0.075
0.085
0.055
0.055
0.025
0.025
0.045
0.045
0.045
0.035
0.035
0.045
0.035
-0.015
-0.015
0.025
0.005
0.035
0.015
0.015
-0.005
0.015
0.025
0.035
0.025
-0.005
0.015
0.015
0.005
-0.015
-0.025
0.025
0.025
0.015
-0.015
-0.005
-0.035
0.015
-0.015
0.015
0.035
0.035
0.025
0.045
0.085
0.115
0.115
0.145
0.205
0.205
0.115
0.115
0.135
0.085
0.035
0.035
0.055
0.045
0.085
0.105
0.175
0.545
0.925
0.635
0.015
-0.215
-0.155
-0.045
0.005
0.045
0.075
0.045
0.035
0.055
0.055
0.065
0.075
0.065
0.085
0.095
0.095
0.095
0.105
0.095
0.105
0.135
0.135
0.135
0.155
0.205
0.215
0.225
0.215
0.255
0.265
0.225
0.225
0.305
0.315
0.305
0.305
0.235
0.225
0.135
0.025
0.075
0.115
0.075
0.005
-0.045
-0.025
-0.025
0.005
0.005
-0.005
-0.085
-0.055
-0.015
0.065
-0.065
-0.125
-0.015
0.035
0.005
-0.045
-0.025
-0.035
-0.025
-0.065
-0.085
-0.125
-0.095
-0.025
-0.035
-0.055
-0.025
-0.025
-0.075
-0.155
-0.085
-0.015
-0.085
-0.125
-0.085
-0.085
-0.045
-0.045
-0.045
-0.045
-0.235
-0.045
0.035
-0.005
-0.045
-0.055
-0.045
-0.055
-0.055
-0.015
-0.055
-0.045
-0.055
-0.045
0.075
0.105
0.045
0.105
0.165
0.155
0.105
0.075
0.025
-0.065
-0.025
-0.055
-0.035
-0.025
-0.025
0.005
0.095
0.585
1.145
0.705
-0.315
-0.545
-0.355
-0.145
-0.045
-0.085
-0.055
-0.085
-0.095
-0.035
-0.035
-0.115
-0.065
0.005
-0.035
-0.195
-0.015
0.095
0.065
0.085
0.075
0.055
0.065
0.055
0.085
0.155
0.165
0.095
0.155
0.165
0.205
0.215
0.215
0.245
0.175
0.295
0.245
0.195
0.175
0.145
0.045
0.065
0.015
-0.005
-0.065
-0.065
-0.055
-0.035
-0.045
-0.025
-0.015
-0.085
-0.015
-0.025
-0.025
-0.035
-0.015
-0.005
-0.015
-0.015
-0.035
-0.025
-0.035
-0.015
-0.025
-0.065
-0.045
-0.065
-0.035
-0.085
-0.105
-0.075
-0.045
-0.085
-0.035
-0.095
-0.075
-0.055
-0.095
-0.095
-0.015
-0.105
0.005
-0.025
-0.055
-0.105
-0.105
-0.085
-0.065
-0.055
-0.045
-0.095
-0.115
-0.075
-0.075
-0.085
-0.105
-0.045
-0.025
-0.015
0.015
0.095
0.115
0.065
0.025
-0.015
-0.085
-0.115
-0.135
-0.145
-0.125
-0.125
-0.095
-0.025
0.035
0.535
1.055
0.525
-0.385
-0.585
-0.385
-0.155
-0.105
-0.105
-0.095
-0.125
-0.105
-0.105
-0.105
-0.065
-0.045
-0.075
-0.075
-0.035
-0.035
-0.015
-0.015
-0.015
0.015
0.035
0.045
0.035
0.065
0.075
0.115
0.145
0.155
0.165
0.165
0.155
0.215
0.255
0.235
0.245
0.235
0.195
0.155
0.115
0.065
0.015
-0.005
-0.055
-0.065
-0.085
-0.085
-0.085
-0.095
-0.075
-0.075
-0.075
-0.075
-0.055
-0.045
-0.065
-0.095
-0.085
-0.035
-0.035
-0.055
-0.045
-0.065
-0.115
-0.095
-0.075
-0.105
-0.125
-0.085
-0.085
-0.095
-0.115
-0.105
-0.145
-0.125
-0.085
-0.105
-0.125
-0.125
-0.125
-0.115
-0.115
-0.115
-0.115
-0.105
-0.095
-0.115
-0.145
-0.125
-0.105
-0.085
-0.075
-0.055
-0.035
-0.025
0.015
0.045
0.085
0.085
0.065
0.005
-0.065
-0.085
-0.105
-0.115
-0.095
-0.115
-0.075
-0.035
0.095
0.685
1.195
0.395
-0.475
-0.585
-0.375
-0.145
-0.075
-0.095
-0.115
-0.105
-0.105
-0.095
-0.065
-0.085
-0.085
-0.055
-0.055
-0.055
-0.035
-0.015
-0.045
-0.015
-0.015
0.025
-0.005
0.015
0.045
0.065
0.095
0.105
0.135
0.125
0.135
0.155
0.195
0.205
0.215
0.195
0.205
0.155
0.085
0.065
0.035
-0.015
-0.055
-0.075
-0.115
-0.125
-0.105
-0.145
-0.135
-0.135
-0.145
-0.115
-0.115
-0.095
-0.105
-0.095
-0.095
-0.085
-0.105
-0.095
-0.115
-0.115
-0.125
-0.105
-0.115
-0.105
-0.135
-0.115
-0.125
-0.145
-0.145
-0.135
-0.135
-0.135
-0.135
-0.125
-0.145
-0.105
-0.145
-0.155
-0.125
-0.125
-0.115
-0.135
-0.135
-0.125
-0.155
-0.115
-0.135
-0.145
-0.105
-0.115
-0.105
-0.085
-0.135
-0.095
-0.075
-0.045
-0.035
0.005
0.085
0.075
0.045
0.005
-0.055
-0.115
-0.105
-0.125
-0.125
-0.115
-0.095
-0.055
-0.025
0.395
0.955
0.835
-0.185
-0.615
-0.495
-0.195
-0.095
-0.095
-0.095
-0.115
-0.105
-0.115
-0.105
-0.085
-0.095
-0.075
-0.065
-0.085
-0.045
-0.055
-0.055
-0.035
-0.025
0.005
0.025
0.025
0.035
0.075
0.065
0.085
0.095
0.155
0.195
0.215
0.215
0.215
0.205
0.205
0.195
0.165
0.115
0.055
-0.005
-0.045
-0.115
-0.105
-0.125
-0.145
-0.155
-0.165
-0.165
-0.185
-0.175
-0.135
-0.135
-0.145
-0.135
-0.135
-0.115
-0.115
-0.145
-0.125
-0.115
-0.115
-0.115
-0.125
-0.145
-0.145
-0.165
-0.145
-0.155
-0.155
-0.135
-0.145
-0.135
-0.165
-0.175
-0.155
-0.125
-0.135
-0.145
-0.165
-0.145
-0.145
-0.155
-0.145
-0.135
-0.145
-0.125
-0.135
-0.135
-0.125
-0.145
-0.135
-0.155
-0.145
-0.105
-0.085
-0.095
-0.045
-0.055
-0.005
0.065
0.055
0.045
0.005
-0.065
-0.105
-0.145
-0.135
-0.135
-0.125
-0.135
-0.055
-0.035
0.305
0.835
0.965
-0.065
-0.655
-0.515
-0.265
-0.115
-0.105
-0.135
-0.135
-0.115
-0.105
-0.115
-0.115
-0.105
-0.085
-0.085
-0.075
-0.085
-0.095
-0.025
-0.055
-0.015
-0.035
-0.055
-0.005
0.035
0.055
0.035
0.075
0.075
0.105
0.125
0.145
0.165
0.195
0.195
0.185
0.165
0.135
0.105
0.075
0.015
-0.045
-0.085
-0.145
-0.135
-0.135
-0.205
-0.175
-0.155
-0.185
-0.135
-0.115
-0.165
-0.155
-0.125
-0.125
-0.115
-0.115
-0.125
-0.095
-0.115
-0.125
-0.135
-0.125
-0.095
-0.125
-0.105
-0.145
-0.165
-0.145
-0.175
-0.135
-0.155
-0.145
-0.155
-0.125
-0.125
-0.145
-0.165
-0.135
-0.175
-0.155
-0.145
-0.115
-0.115
-0.125
-0.145
-0.145
-0.105
-0.115
-0.115
-0.125
-0.115
-0.125
-0.135
-0.125
-0.135
-0.125
-0.095
-0.055
-0.035
-0.015
0.035
0.065
0.035
0.015
-0.025
-0.085
-0.135
-0.155
-0.165
-0.165
-0.145
-0.095
-0.095
-0.045
0.535
1.185
0.655
-0.405
-0.635
-0.475
-0.215
-0.115
-0.095
-0.135
-0.145
-0.145
-0.115
-0.135
-0.115
-0.115
-0.105
-0.105
-0.105
-0.105
-0.075
-0.075
-0.065
-0.075
-0.055
0.025
-0.015
-0.005
0.035
0.105
0.055
0.055
0.085
0.095
0.115
0.155
0.175
0.195
0.155
0.165
0.135
0.115
0.015
-0.015
-0.055
-0.095
-0.105
-0.145
-0.165
-0.155
-0.175
-0.175
-0.145
-0.145
-0.135
-0.125
-0.125
-0.125
-0.145
-0.105
-0.125
-0.115
-0.085
-0.095
-0.095
-0.095
-0.105
-0.115
-0.135
-0.115
-0.135
-0.145
-0.125
-0.125
-0.135
-0.125
-0.125
-0.125
-0.115
-0.125
-0.125
-0.145
-0.135
-0.105
-0.135
-0.125
-0.095
-0.105
-0.125
-0.105
-0.105
-0.115
-0.125
-0.125
-0.075
-0.095
-0.115
-0.125
-0.115
-0.095
-0.095
-0.125
-0.095
-0.005
-0.015
0.025
0.015
0.095
0.085
0.045
0.005
-0.045
-0.065
-0.115
-0.115
-0.085
-0.055
-0.095
-0.015
0.115
0.645
1.335
0.775
-0.405
-0.565
-0.335
-0.075
-0.035
-0.065
-0.075
-0.105
-0.085
-0.065
-0.075
-0.045
-0.055
-0.045
-0.065
-0.045
-0.025
-0.015
-0.025
0.005
0.025
-0.005
0.035
0.065
0.075
0.105
0.125
0.155
0.195
0.155
0.205
0.215
0.255
0.255
0.255
0.265
0.245
0.195
0.165
0.075
0.045
-0.045
-0.085
-0.075
-0.095
-0.105
-0.105
-0.115
-0.105
-0.095
-0.135
-0.145
-0.065
-0.065
-0.075
-0.095
-0.075
-0.035
-0.065
-0.085
-0.075
-0.095
-0.065
-0.085
-0.105
-0.075
-0.085
-0.085
-0.115
-0.105
-0.135
-0.135
-0.115
-0.105
-0.135
-0.115
-0.095
-0.115
-0.145
-0.275
-0.185
-0.065
-0.055
-0.095
-0.095
-0.095
-0.095
-0.155
-0.145
-0.105
-0.095
-0.135
-0.095
-0.125
-0.125
-0.145
-0.095
-0.085
-0.105
-0.085
-0.065
-0.075
0.035
-0.085
0.045
0.045
0.065
0.065
0.035
-0.095
-0.035
-0.095
-0.115
-0.155
0.085
-0.085
-0.125
-0.065
0.205
0.805
1.245
0.105
-0.675
-0.535
-0.105
-0.055
-0.105
-0.145
-0.085
-0.105
-0.085
-0.095
-0.105
-0.095
-0.085
-0.085
-0.055
-0.085
-0.065
-0.095
-0.045
-0.025
-0.015
-0.015
0.025
0.025
0.035
0.055
0.075
0.085
0.125
0.125
0.125
0.255
0.235
0.285
0.135
0.125
0.135
0.085
0.105
-0.035
-0.085
-0.115
-0.095
-0.195
-0.225
-0.145
-0.105
-0.255
-0.295
-0.245
-0.215
-0.215
-0.195
-0.215
-0.225
-0.185
-0.205
-0.145
-0.215
-0.035
-0.215
-0.255
-0.215
-0.215
-0.195
-0.185
-0.205
-0.175
-0.155
-0.235
-0.225
-0.225
-0.195
-0.195
-0.205
-0.205
-0.215
-0.225
-0.195
-0.205
-0.195
-0.195
-0.215
-0.125
-0.195
-0.265
-0.225
-0.195
-0.185
-0.195
-0.195
-0.175
-0.195
-0.225
-0.175
-0.105
-0.145
-0.195
-0.155
-0.105
-0.075
-0.025
0.145
-0.025
-0.105
-0.095
-0.085
-0.205
-0.175
-0.035
-0.145
-0.155
-0.165
-0.165
-0.055
0.595
1.315
0.565
-0.565
-0.685
-0.375
-0.135
-0.195
-0.085
-0.185
-0.215
-0.185
-0.105
-0.105
-0.085
-0.225
-0.085
-0.135
-0.175
-0.095
0.035
0.015
-0.115
-0.025
-0.095
-0.085
-0.035
-0.005
0.015
0.105
0.085
0.245
0.085
0.135
0.185
0.045
0.175
0.165
0.125
0.325
0.105
0.135
0.015
0.075
0.075
-0.135
-0.275
-0.205
-0.185
-0.175
-0.165
-0.205
-0.205
-0.205
-0.195
-0.195
-0.115
-0.205
-0.175
-0.235
-0.205
-0.145
-0.155
-0.195
-0.015
-0.245
-0.115
-0.105
-0.205
-0.195
-0.205
-0.135
-0.265
-0.215
-0.225
-0.105
-0.065
-0.325
-0.245
-0.135
-0.095
-0.235
-0.235
-0.195
-0.165
-0.165
-0.175
-0.195
-0.165
-0.165
-0.225
0.005
-0.215
-0.245
-0.145
-0.175
-0.195
-0.165
-0.175
-0.145
-0.075
-0.065
-0.045
-0.015
0.025
0.095
-0.055
-0.115
-0.095
-0.145
-0.165
-0.195
-0.165
-0.155
-0.165
0.005
0.075
0.615
1.345
0.475
-0.535
-0.585
-0.335
-0.125
-0.135
-0.155
-0.145
-0.155
-0.165
-0.145
-0.145
-0.135
-0.135
-0.125
-0.085
-0.075
-0.115
-0.055
0.005
-0.125
-0.065
0.005
0.015
0.005
0.105
0.055
0.035
0.055
0.175
0.125
0.155
0.195
0.205
0.205
0.205
0.215
0.215
0.165
0.125
0.055
-0.015
-0.065
-0.105
-0.125
-0.145
-0.145
-0.155
-0.135
-0.135
-0.095
-0.125
-0.105
-0.125
-0.145
-0.165
-0.145
-0.065
-0.055
-0.065
-0.065
-0.025
-0.125
-0.085
-0.095
-0.095
-0.105
-0.115
-0.095
-0.085
-0.115
-0.075
-0.105
-0.095
-0.095
-0.165
-0.165
-0.095
-0.065
-0.145
-0.095
-0.105
-0.075
-0.095
-0.155
-0.105
-0.145
-0.125
-0.165
-0.175
-0.085
-0.075
-0.135
-0.105
-0.095
-0.085
-0.055
-0.035
-0.015
0.005
0.135
0.075
0.065
0.035
-0.085
-0.095
-0.125
-0.115
-0.145
-0.105
-0.035
0.015
0.015
0.475
1.065
0.585
-0.425
-0.585
-0.345
-0.155
-0.055
-0.015
-0.065
-0.065
-0.035
-0.015
-0.015
0.005
0.005
-0.005
-0.025
-0.015
-0.035
-0.005
0.035
0.055
0.055
0.055
0.035
0.025
0.085
0.125
0.105
0.115
0.145
0.195
0.145
0.175
0.175
0.225
0.235
0.245
0.215
0.185
0.165
0.105
0.045
0.025
-0.055
-0.065
-0.075
-0.095
-0.105
-0.115
-0.095
-0.065
-0.095
-0.065
-0.045
-0.065
-0.055
-0.055
-0.055
-0.065
-0.055
-0.015
-0.005
-0.105
-0.105
-0.135
-0.025
-0.095
-0.065
-0.065
-0.065
-0.095
-0.055
-0.105
-0.095
-0.065
-0.085
-0.035
-0.085
-0.135
-0.065
-0.085
-0.085
-0.055
-0.095
-0.065
-0.075
-0.085
-0.035
-0.065
-0.095
-0.085
-0.095
-0.035
-0.045
-0.035
-0.015
0.005
0.015
0.045
0.085
0.135
0.115
0.065
0.015
-0.045
-0.085
-0.035
-0.085
-0.075
-0.055
-0.005
0.045
0.175
0.605
1.055
0.385
-0.385
-0.465
-0.255
-0.085
-0.055
-0.055
-0.055
-0.045
-0.045
-0.045
-0.025
-0.045
-0.025
-0.025
-0.005
0.005
-0.015
0.025
0.045
0.035
0.035
0.055
0.075
0.105
0.125
0.135
0.155
0.175
0.195
0.205
0.215
0.245
0.265
0.285
0.285
0.255
0.225
0.175
0.175
0.145
0.065
0.015
-0.005
-0.045
-0.055
-0.065
-0.065
-0.095
-0.095
-0.065
-0.065
-0.075
-0.035
-0.045
-0.045
-0.035
-0.045
-0.025
-0.025
-0.025
-0.055
-0.055
-0.055
-0.065
-0.045
-0.045
-0.065
-0.065
-0.075
-0.085
-0.075
-0.075
-0.055
-0.075
-0.095
-0.085
-0.075
-0.045
-0.115
-0.085
-0.055
-0.075
-0.065
-0.065
-0.085
-0.065
-0.085
-0.075
-0.015
-0.055
-0.075
-0.055
-0.065
-0.065
-0.025
0.025
0.025
0.035
0.075
0.175
0.125
0.075
0.075
0.045
-0.045
-0.075
-0.055
-0.085
-0.135
0.015
0.085
0.165
0.665
1.275
0.595
-0.545
-0.585
-0.265
-0.015
-0.015
-0.015
-0.045
-0.075
-0.045
-0.075
-0.075
-0.025
-0.035
-0.025
-0.025
-0.025
-0.045
-0.025
0.005
-0.015
0.025
0.045
0.055
0.055
0.085
0.065
0.105
0.115
0.155
0.205
0.205
0.235
0.245
0.215
0.255
0.235
0.245
0.215
0.195
0.095
0.005
-0.045
-0.055
-0.055
-0.045
-0.035
-0.065
0.015
-0.125
-0.125
-0.095
-0.075
-0.075
-0.045
0.015
-0.015
0.005
-0.045
0.025
0.025
-0.005
0.015
-0.045
-0.025
0.005
-0.035
0.005
-0.025
-0.035
-0.045
-0.035
-0.055
-0.035
-0.075
-0.045
-0.025
-0.045
-0.055
-0.045
-0.055
-0.075
-0.095
-0.065
-0.045
-0.085
-0.085
-0.085
-0.095
-0.095
-0.105
-0.105
-0.095
-0.075
-0.085
-0.105
-0.075
-0.105
-0.095
-0.105
-0.065
-0.015
-0.025
-0.005
0.055
0.105
0.045
0.045
0.015
-0.055
-0.125
-0.105
-0.105
-0.105
-0.095
-0.085
-0.035
0.035
0.525
1.075
0.375
-0.525
-0.595
-0.365
-0.145
-0.135
-0.105
-0.105
-0.145
-0.175
-0.115
-0.125
-0.135
-0.135
-0.125
-0.095
-0.125
-0.115
-0.105
-0.095
-0.075
-0.055
-0.035
-0.015
-0.055
-0.045
-0.035
-0.005
0.025
0.045
0.085
0.115
0.115
0.105
0.115
0.135
0.075
0.055
0.065
0.025
-0.075
-0.105
-0.205
-0.225
-0.225
-0.215
-0.225
-0.235
-0.225
-0.205
-0.315
-0.235
-0.195
-0.165
-0.165
-0.235
-0.155
-0.205
-0.275
-0.135
-0.135
-0.155
-0.115
-0.175
-0.215
-0.175
-0.195
-0.235
-0.145
-0.175
-0.175
-0.225
-0.165
-0.175
-0.185
-0.185
-0.205
-0.195
-0.215
-0.165
-0.255
-0.275
-0.245
-0.185
-0.195
-0.195
-0.155
-0.155
-0.025
-0.235
-0.275
-0.225
-0.275
-0.255
-0.235
-0.265
-0.225
-0.195
-0.195
-0.195
-0.235
-0.225
-0.155
-0.165
-0.135
-0.175
-0.045
-0.025
0.035
-0.025
-0.045
-0.105
-0.195
-0.085
-0.165
-0.175
-0.215
-0.175
-0.215
-0.145
-0.065
0.175
0.665
1.055
0.055
-0.725
-0.735
-0.365
-0.105
-0.175
-0.175
-0.145
-0.175
-0.155
-0.165
-0.125
-0.185
-0.105
0.075
-0.095
-0.215
-0.175
-0.145
-0.095
-0.095
-0.065
-0.055
-0.035
-0.055
-0.045
-0.025
-0.005
0.045
0.065
0.005
0.115
0.145
0.135
0.115
0.165
0.085
0.095
0.075
-0.005
-0.005
-0.055
-0.145
-0.165
-0.165
-0.215
-0.215
-0.255
-0.245
-0.235
-0.265
-0.225
-0.225
-0.215
-0.205
-0.185
-0.195
-0.215
-0.225
-0.185
-0.235
-0.275
-0.155
-0.065
-0.195
-0.335
-0.305
-0.245
-0.275
-0.265
-0.235
-0.275
-0.245
-0.265
-0.265
-0.225
-0.305
-0.245
-0.235
-0.245
-0.285
-0.265
-0.245
-0.315
-0.245
-0.235
-0.255
-0.245
-0.225
-0.265
-0.255
-0.275
-0.215
-0.205
-0.255
-0.225
-0.185
-0.185
-0.205
-0.175
-0.175
-0.165
-0.155
-0.195
-0.085
-0.075
-0.045
-0.025
0.015
0.015
-0.015
-0.025
-0.045
-0.075
-0.075
-0.075
-0.065
-0.055
-0.065
-0.025
-0.035
0.145
0.405
0.435
-0.045
-0.285
-0.245
-0.115
-0.055
-0.075
-0.055
-0.055
-0.075
-0.095
-0.095
-0.095
-0.095
-0.095
-0.105
-0.095
-0.145
-0.155
-0.115
-0.115
-0.135
-0.135
-0.135
-0.155
-0.125
-0.125
-0.095
-0.115
-0.085
-0.075
-0.075
-0.065
-0.015
0.005
-0.015
-0.025
-0.045
-0.075
-0.105
-0.175
-0.235
-0.215
-0.325
-0.375
-0.385
-0.415
-0.425
-0.415
-0.385
-0.385
-0.475
-0.425
-0.375
-0.385
-0.395
-0.385
-0.405
-0.465
-0.385
-0.385
-0.345
-0.355
-0.455
-0.415
-0.345
-0.355
-0.405
-0.335
-0.365
-0.365
-0.335
-0.365
-0.345
-0.405
-0.335
-0.345
-0.325
-0.315
-0.355
-0.335
-0.345
-0.335
-0.315
-0.265
-0.355
-0.315
-0.265
-0.335
-0.335
-0.255
-0.315
-0.325
-0.265
-0.285
-0.285
-0.275
-0.285
-0.275
-0.285
-0.275
-0.225
-0.135
-0.165
-0.125
-0.145
-0.145
-0.195
-0.255
-0.285
-0.315
-0.305
-0.275
-0.285
-0.245
-0.195
-0.155
0.305
0.835
0.635
-0.445
-0.805
-0.605
-0.365
-0.215
-0.245
-0.235
-0.215
-0.245
-0.205
-0.175
-0.215
-0.215
-0.195
-0.225
-0.155
-0.135
-0.165
-0.105
-0.125
-0.125
-0.085
-0.035
-0.055
-0.085
-0.015
-0.025
-0.005
0.035
0.025
0.055
0.095
0.125
0.125
0.145
0.115
0.115
0.135
0.055
0.005
-0.075
-0.095
-0.145
-0.205
-0.195
-0.245
-0.245
-0.245
-0.215
-0.225
-0.195
-0.225
-0.205
-0.205
-0.195
-0.245
-0.205
-0.195
-0.195
-0.185
-0.175
-0.175
-0.195
-0.175
-0.155
-0.205
-0.185
-0.225
-0.225
-0.215
-0.165
-0.205
-0.165
-0.165
-0.215
-0.215
-0.195
-0.175
-0.215
-0.185
-0.255
-0.195
-0.225
-0.195
-0.185
-0.185
-0.165
-0.215
-0.135
-0.145
-0.155
-0.245
-0.195
-0.155
-0.225
-0.155
-0.155
-0.125
-0.065
-0.085
-0.085
-0.045
0.085
0.085
0.015
-0.025
-0.035
-0.095
-0.165
-0.185
-0.175
-0.165
-0.135
-0.095
-0.055
-0.045
0.405
1.025
0.545
-0.645
-0.695
-0.435
-0.155
-0.155
-0.155
-0.135
-0.085
-0.185
-0.155
-0.075
-0.115
-0.135
-0.115
-0.085
-0.105
-0.095
-0.105
-0.095
-0.035
-0.045
-0.035
-0.005
0.015
0.025
0.045
0.075
0.085
0.105
0.115
0.145
0.205
0.185
0.245
0.225
0.255
0.205
0.125
0.125
0.095
0.015
-0.045
-0.055
-0.085
-0.165
-0.165
-0.155
-0.135
-0.135
-0.145
-0.145
-0.125
-0.135
-0.135
-0.115
-0.155
-0.095
-0.105
-0.145
-0.065
-0.105
-0.085
-0.095
-0.095
-0.145
-0.145
-0.155
-0.125
-0.105
-0.105
-0.145
-0.125
-0.155
-0.135
-0.115
-0.105
-0.105
-0.095
-0.135
-0.125
-0.135
-0.135
-0.145
-0.155
-0.115
-0.105
-0.135
-0.155
-0.105
-0.075
-0.095
-0.125
-0.105
-0.085
-0.105
-0.145
-0.065
-0.025
-0.015
0.015
0.115
0.085
0.055
0.035
-0.015
-0.075
-0.095
-0.105
-0.085
-0.085
-0.065
-0.005
0.025
0.455
1.115
0.955
-0.285
-0.615
-0.375
-0.175
-0.055
-0.055
-0.035
-0.015
-0.085
-0.045
-0.035
-0.025
-0.025
-0.055
-0.005
0.025
0.015
0.035
0.065
0.045
0.085
0.095
0.105
0.145
0.125
0.155
0.185
0.215
0.245
0.255
0.275
0.325
0.305
0.335
0.325
0.365
0.355
0.315
0.245
0.215
0.115
0.055
0.005
0.025
-0.015
-0.005
-0.045
-0.035
-0.035
-0.065
-0.025
-0.015
-0.025
-0.065
0.015
0.055
0.005
0.035
0.045
0.045
-0.005
0.025
0.045
0.035
0.005
-0.045
0.025
0.035
-0.015
0.015
0.005
0.015
0.005
-0.005
-0.025
0.015
0.005
-0.005
-0.005
-0.015
-0.025
-0.015
0.015
-0.025
-0.045
0.025
0.025
0.005
0.025
0.015
0.015
0.005
0.005
-0.015
0.055
0.145
0.095
0.105
0.255
0.295
0.205
0.135
0.125
0.085
0.015
0.035
0.035
0.025
0.045
0.065
0.155
0.365
0.885
1.305
0.175
-0.585
-0.455
-0.115
0.055
0.045
0.005
0.035
0.025
0.025
0.065
0.025
0.065
0.035
0.065
0.055
0.075
0.115
0.145
0.125
0.135
0.145
0.135
0.165
0.185
0.225
0.265
0.285
0.275
0.335
0.335
0.385
0.395
0.425
0.425
0.425
0.435
0.375
0.275
0.215
0.155
0.115
0.065
0.035
0.015
-0.005
-0.035
-0.025
0.025
0.005
0.015
0.005
0.005
0.035
-0.045
-0.015
0.065
0.015
0.085
0.035
0.065
0.045
0.065
0.075
0.045
0.065
0.045
0.025
0.025
0.055
0.035
0.045
0.045
0.045
0.065
0.035
0.025
0.075
0.005
0.025
-0.005
0.085
0.065
0.015
0.015
0.045
0.025
0.005
0.025
0.055
0.015
0.045
0.055
0.045
0.025
0.045
0.035
0.135
0.115
0.125
0.175
0.235
0.205
0.205
0.195
0.125
0.055
-0.005
0.035
0.045
0.015
0.025
0.105
0.125
0.275
0.835
1.395
0.405
-0.555
-0.465
-0.155
0.005
0.025
0.015
0.025
0.015
0.005
-0.025
0.005
0.035
0.005
0.035
0.035
0.045
0.065
0.055
0.095
0.085
0.085
0.065
0.135
0.145
0.155
0.175
0.195
0.235
0.235
0.265
0.275
0.315
0.325
0.345
0.345
0.305
0.295
0.295
0.225
0.155
0.065
0.065
0.025
-0.005
-0.015
-0.005
-0.035
-0.035
-0.045
-0.035
-0.025
-0.055
-0.035
-0.025
-0.005
-0.025
-0.045
-0.035
-0.055
-0.055
-0.055
-0.045
-0.055
-0.085
-0.065
-0.045
-0.075
-0.085
-0.095
-0.125
-0.085
-0.075
-0.105
-0.105
-0.095
-0.145
-0.115
-0.085
-0.095
-0.105
-0.135
-0.105
-0.145
-0.115
-0.115
-0.135
-0.125
-0.115
-0.135
-0.115
-0.115
-0.145
-0.125
-0.115
-0.105
-0.115
-0.135
-0.115
-0.095
-0.115
-0.085
-0.035
-0.045
-0.015
0.035
0.075
0.055
0.045
-0.015
-0.085
-0.085
-0.145
-0.165
-0.105
-0.135
-0.065
0.005
0.075
0.605
1.155
0.545
-0.395
-0.645
-0.405
-0.165
-0.095
-0.105
-0.095
-0.095
-0.095
-0.105
-0.075
-0.045
-0.115
-0.045
0.005
-0.045
-0.025
-0.025
-0.005
0.005
0.005
0.015
0.035
0.055
0.045
0.065
0.105
0.145
0.155
0.155
0.195
0.205
0.235
0.255
0.275
0.265
0.215
0.205
0.145
0.105
0.045
0.055
-0.005
-0.025
0.005
-0.075
-0.075
-0.075
-0.095
-0.065
-0.055
-0.045
-0.025
-0.045
-0.045
-0.045
-0.025
-0.055
-0.045
-0.025
-0.015
-0.055
-0.055
-0.055
-0.055
-0.075
-0.035
-0.055
-0.055
-0.085
-0.075
-0.085
-0.075
-0.055
-0.075
-0.085
-0.065
-0.085
-0.105
-0.095
-0.055
-0.065
-0.075
-0.085
-0.125
-0.075
-0.085
-0.135
-0.075
-0.075
-0.085
-0.085
-0.095
-0.055
-0.115
-0.115
-0.085
-0.065
-0.095
-0.075
-0.075
-0.065
-0.025
0.005
-0.005
0.025
0.085
0.095
0.085
0.075
-0.005
-0.025
-0.125
-0.115
-0.115
-0.095
-0.085
-0.045
-0.005
-0.025
0.425
1.025
0.595
-0.455
-0.615
-0.375
-0.125
-0.075
-0.075
-0.075
-0.085
-0.065
-0.105
-0.065
-0.055
-0.065
-0.085
-0.075
-0.075
-0.015
-0.035
-0.045
0.005
0.035
0.005
-0.005
0.045
0.055
0.095
0.105
0.115
0.105
0.185
0.205
0.205
0.235
0.245
0.255
0.275
0.185
0.185
0.125
0.055
-0.025
-0.045
-0.075
-0.105
-0.125
-0.135
-0.135
-0.145
-0.135
-0.105
-0.135
-0.145
-0.155
-0.095
-0.085
-0.105
-0.095
-0.105
-0.075
-0.075
-0.135
-0.115
-0.115
-0.115
-0.115
-0.105
-0.105
-0.105
-0.135
-0.115
-0.125
-0.155
-0.145
-0.145
-0.125
-0.145
-0.155
-0.125
-0.135
-0.135
-0.095
-0.115
-0.155
-0.135
-0.155
-0.135
-0.135
-0.155
-0.145
-0.155
-0.135
-0.125
-0.165
-0.145
-0.175
-0.135
-0.145
-0.145
-0.165
-0.135
-0.155
-0.115
-0.125
-0.145
-0.115
-0.075
-0.055
-0.035
0.015
0.045
0.025
0.015
-0.035
-0.075
-0.135
-0.175
-0.155
-0.165
-0.135
-0.105
-0.065
-0.055
0.385
0.925
0.885
-0.135
-0.685
-0.505
-0.255
-0.145
-0.145
-0.145
-0.145
-0.145
-0.165
-0.155
-0.155
-0.145
-0.165
-0.185
-0.155
-0.125
-0.115
-0.055
-0.085
-0.055
-0.065
-0.065
-0.035
-0.025
0.005
0.065
0.065
0.105
0.135
0.175
0.175
0.215
0.215
0.245
0.265
0.255
0.215
0.185
0.105
0.055
0.015
-0.035
-0.065
-0.095
-0.115
-0.135
-0.155
-0.135
-0.135
-0.145
-0.145
-0.135
-0.115
-0.095
-0.125
-0.105
-0.095
-0.085
-0.085
-0.095
-0.095
-0.095
-0.115
-0.115
-0.115
-0.115
-0.125
-0.135
-0.135
-0.125
-0.145
-0.135
-0.145
-0.145
-0.135
-0.145
-0.165
-0.155
-0.155
-0.145
-0.155
-0.155
-0.175
-0.165
-0.155
-0.165
-0.195
-0.145
-0.145
-0.135
-0.155
-0.165
-0.145
-0.165
-0.165
-0.175
-0.145
-0.145
-0.125
-0.135
-0.125
-0.105
-0.065
-0.025
-0.015
0.025
0.045
0.025
0.025
-0.035
-0.105
-0.135
-0.145
-0.155
-0.135
-0.135
-0.115
-0.115
0.045
0.685
1.365
0.725
-0.515
-0.655
-0.365
-0.115
-0.165
-0.145
-0.105
-0.125
-0.115
-0.125
-0.115
-0.105
-0.125
-0.085
-0.085
-0.095
-0.075
-0.055
-0.055
-0.045
-0.055
0.005
0.005
0.005
0.015
0.045
0.075
0.095
0.115
0.145
0.175
0.205
0.225
0.245
0.255
0.245
0.215
0.185
0.135
0.065
-0.015
-0.045
-0.105
-0.125
-0.175
-0.155
-0.165
-0.175
-0.155
-0.155
-0.185
-0.155
-0.185
-0.175
-0.135
-0.125
-0.155
-0.155
-0.135
-0.115
-0.145
-0.125
-0.135
-0.095
-0.125
-0.115
-0.145
-0.135
-0.165
-0.145
-0.135
-0.145
-0.145
-0.135
-0.135
-0.135
-0.165
-0.145
-0.145
-0.155
-0.145
-0.145
-0.135
-0.145
-0.155
-0.145
-0.155
-0.125
-0.115
-0.145
-0.145
-0.125
-0.155
-0.115
-0.145
-0.135
-0.115
-0.155
-0.135
-0.115
-0.155
-0.115
-0.145
-0.145
-0.125
-0.115
-0.055
-0.035
-0.045
0.035
0.065
0.065
0.065
0.035
-0.055
-0.095
-0.145
-0.165
-0.155
-0.125
-0.125
-0.115
-0.065
0.425
1.175
1.225
-0.185
-0.695
-0.455
-0.155
-0.105
-0.125
-0.165
-0.145
-0.125
-0.135
-0.105
-0.105
-0.105
-0.095
-0.115
-0.065
-0.085
-0.045
-0.035
-0.055
-0.025
0.015
-0.015
0.025
0.025
0.045
0.085
0.115
0.115
0.155
0.165
0.165
0.215
0.215
0.195
0.255
0.225
0.185
0.125
0.085
0.025
-0.045
-0.075
-0.125
-0.125
-0.135
-0.145
-0.125
-0.135
-0.155
-0.105
-0.135
-0.105
-0.135
-0.125
-0.105
-0.105
-0.105
-0.085
-0.095
-0.095
-0.105
-0.115
-0.095
-0.115
-0.095
-0.095
-0.105
-0.115
-0.105
-0.125
-0.085
-0.115
-0.105
-0.095
-0.125
-0.105
-0.115
-0.135
-0.095
-0.105
-0.095
-0.105
-0.105
-0.115
-0.135
-0.115
-0.135
-0.105
-0.105
-0.135
-0.115
-0.135
-0.105
-0.115
-0.135
-0.105
-0.125
-0.105
-0.105
-0.125
-0.115
-0.085
-0.125
-0.085
-0.105
-0.115
-0.095
-0.035
-0.015
0.005
0.045
0.125
0.085
0.065
0.085
0.025
-0.075
-0.065
-0.125
-0.125
-0.125
-0.105
-0.085
-0.055
0.495
1.175
1.095
-0.295
-0.655
-0.375
-0.105
-0.085
-0.105
-0.125
-0.145
-0.095
-0.125
-0.115
-0.085
-0.065
-0.105
-0.065
-0.095
-0.075
-0.045
-0.015
-0.005
-0.045
0.045
0.015
0.005
0.035
0.085
0.095
0.125
0.125
0.165
0.165
0.165
0.205
0.235
0.235
0.225
0.215
0.185
0.115
0.065
0.015
-0.015
-0.025
-0.065
-0.085
-0.075
-0.125
-0.095
-0.085
-0.075
-0.085
-0.075
-0.085
-0.065
-0.065
-0.055
-0.105
-0.065
-0.045
-0.055
-0.065
-0.045
-0.105
-0.075
-0.065
-0.095
-0.095
-0.095
-0.075
-0.085
-0.095
-0.095
-0.095
-0.095
-0.115
-0.115
-0.105
-0.105
-0.105
-0.125
-0.115
-0.135
-0.165
-0.105
-0.115
-0.125
-0.145
-0.135
-0.125
-0.145
-0.115
-0.145
-0.125
-0.145
-0.185
-0.105
-0.145
-0.185
-0.115
-0.105
-0.075
-0.095
-0.175
-0.115
-0.095
-0.095
-0.015
-0.015
0.005
0.075
0.075
0.065
0.065
0.005
-0.095
-0.135
-0.145
-0.155
-0.185
-0.155
-0.125
-0.115
0.075
0.725
1.325
0.415
-0.595
-0.635
-0.305
-0.145
-0.125
-0.145
-0.145
-0.155
-0.175
-0.155
-0.165
-0.135
-0.165
-0.115
-0.095
-0.095
-0.105
-0.115
-0.095
-0.035
-0.065
-0.045
-0.035
-0.015
-0.015
0.005
0.035
0.045
0.075
0.105
0.125
0.135
0.125
0.145
0.155
0.145
0.145
0.115
0.065
0.025
-0.045
-0.085
-0.125
-0.145
-0.165
-0.165
-0.175
-0.185
-0.185
-0.165
-0.165
-0.155
-0.155
-0.165
-0.155
-0.165
-0.175
-0.165
-0.175
-0.165
-0.165
-0.185
-0.185
-0.165
-0.175
-0.195
-0.185
-0.195
-0.195
-0.195
-0.185
-0.195
-0.195
-0.205
-0.195
-0.185
-0.195
-0.195
-0.195
-0.185
-0.205
-0.175
-0.185
-0.185
-0.175
-0.165
-0.175
-0.185
-0.195
-0.185
-0.185
-0.175
-0.165
-0.165
-0.165
-0.175
-0.185
-0.165
-0.155
-0.155
-0.145
-0.165
-0.155
-0.155
-0.155
-0.105
-0.065
-0.055
-0.025
0.055
0.075
0.055
0.015
-0.035
-0.105
-0.135
-0.155
-0.145
-0.155
-0.125
-0.145
-0.105
0.205
0.855
1.295
0.185
-0.615
-0.545
-0.325
-0.135
-0.135
-0.125
-0.115
-0.135
-0.145
-0.125
-0.145
-0.105
-0.105
-0.105
-0.085
-0.095
-0.075
-0.055
-0.075
-0.055
-0.055
-0.015
-0.005
-0.005
0.015
0.035
0.045
0.075
0.095
0.115
0.145
0.145
0.155
0.155
0.145
0.155
0.145
0.115
0.085
0.025
-0.025
-0.055
-0.115
-0.115
-0.135
-0.145
-0.125
-0.135
-0.165
-0.115
-0.125
-0.115
-0.135
-0.115
-0.105
-0.095
-0.105
-0.125
-0.135
-0.115
-0.125
-0.115
-0.105
-0.115
-0.135
-0.115
-0.135
-0.155
-0.125
-0.115
-0.115
-0.135
-0.135
-0.135
-0.135
-0.125
-0.125
-0.115
-0.105
-0.115
-0.115
-0.125
-0.145
-0.105
-0.115
-0.105
-0.095
-0.115
-0.115
-0.095
-0.115
-0.105
-0.115
-0.105
-0.095
-0.095
-0.095
-0.085
-0.115
-0.105
-0.105
-0.085
-0.085
-0.085
-0.065
-0.015
0.005
0.015
0.065
0.115
0.105
0.095
0.025
-0.035
-0.085
-0.115
-0.095
-0.085
-0.095
-0.055
-0.045
0.055
0.675
1.365
0.825
-0.375
-0.595
-0.375
-0.115
-0.055
-0.055
-0.075
-0.065
-0.065
-0.065
-0.065
-0.055
-0.035
-0.045
-0.045
0.005
-0.015
0.005
0.005
0.005
0.005
0.025
0.025
0.065
0.115
0.095
0.155
0.145
0.145
0.155
0.165
0.195
0.225
0.235
0.245
0.235
0.225
0.185
0.155
0.115
0.065
0.005
-0.045
-0.075
-0.085
-0.105
-0.105
-0.095
-0.115
-0.105
-0.095
-0.095
-0.085
-0.105
-0.085
-0.085
-0.065
-0.065
-0.075
-0.075
-0.075
-0.095
-0.075
-0.085
-0.075
-0.095
-0.095
-0.115
-0.105
-0.125
-0.105
-0.095
-0.095
-0.055
-0.115
-0.115
-0.115
-0.125
-0.105
-0.115
-0.095
-0.105
-0.105
-0.105
-0.115
-0.115
-0.145
-0.155
-0.115
-0.115
-0.105
-0.085
-0.085
-0.135
-0.135
-0.175
-0.155
-0.085
-0.055
-0.085
-0.085
-0.105
-0.115
-0.105
-0.105
-0.065
-0.005
0.005
0.035
0.085
0.085
0.065
0.035
-0.035
-0.085
-0.115
-0.125
-0.145
-0.125
-0.075
-0.055
-0.065
0.415
1.085
1.065
-0.225
-0.635
-0.465
-0.115
-0.055
-0.095
-0.145
-0.155
-0.105
-0.115
-0.115
-0.045
-0.145
-0.025
-0.015
-0.005
-0.035
0.005
0.025
-0.005
0.045
0.055
0.065
0.085
0.115
0.145
0.135
0.165
0.205
0.205
0.235
0.245
0.245
0.255
0.325
0.305
0.285
0.235
0.205
0.125
0.035
0.015
-0.035
-0.095
-0.105
-0.125
-0.115
-0.095
-0.125
-0.135
-0.115
-0.115
-0.125
-0.095
-0.125
-0.085
-0.125
-0.085
-0.095
-0.085
-0.105
-0.095
-0.105
-0.105
-0.115
-0.125
-0.115
-0.115
-0.095
-0.095
-0.125
-0.105
-0.105
-0.125
-0.105
-0.115
-0.095
-0.095
-0.095
-0.105
-0.095
-0.105
-0.105
-0.075
-0.085
-0.075
-0.085
-0.115
-0.105
-0.075
-0.055
-0.075
-0.045
-0.055
-0.045
-0.055
-0.075
-0.045
-0.035
-0.035
-0.035
-0.025
-0.035
-0.025
0.015
0.085
0.075
0.135
0.195
0.165
0.145
0.115
0.055
0.025
0.005
-0.015
0.005
0.025
0.015
0.065
0.025
0.495
1.175
1.145
-0.025
-0.445
-0.305
0.005
0.005
-0.005
0.005
0.005
-0.005
0.005
0.005
0.005
-0.015
0.015
0.035
0.025
0.045
0.055
0.055
0.075
0.045
0.095
0.075
0.135
0.145
0.135
0.165
0.195
0.205
0.255
0.235
0.295
0.315
0.315
0.305
0.325
0.275
0.285
0.235
0.175
0.105
0.045
0.005
-0.035
-0.075
-0.055
-0.065
-0.075
-0.055
-0.055
-0.055
-0.055
-0.075
-0.045
-0.045
-0.045
-0.025
-0.035
-0.045
-0.045
-0.075
-0.065
-0.035
-0.045
-0.085
-0.075
-0.075
-0.095
-0.085
-0.105
-0.075
-0.065
-0.105
-0.075
-0.055
-0.085
-0.105
-0.075
-0.075
-0.095
-0.095
-0.085
-0.085
-0.085
-0.095
-0.115
-0.065
-0.065
-0.065
-0.065
-0.055
-0.075
-0.075
-0.085
-0.045
-0.035
-0.075
-0.055
-0.065
-0.065
-0.055
-0.045
-0.065
-0.065
-0.035
0.005
0.035
0.025
0.035
0.135
0.155
0.135
0.135
0.065
-0.005
-0.035
-0.075
-0.085
-0.045
-0.015
-0.025
0.005
0.185
0.805
1.405
0.505
-0.485
-0.495
-0.225
-0.055
-0.065
-0.085
-0.095
-0.065
-0.065
-0.045
-0.055
-0.045
-0.045
-0.035
-0.045
-0.015
-0.025
-0.005
0.025
0.015
0.035
0.045
0.035
0.075
0.085
0.095
0.135
0.145
0.165
0.225
0.195
0.225
0.265
0.275
0.265
0.265
0.215
0.175
0.105
0.055
0.005
-0.055
-0.085
-0.095
-0.115
-0.125
-0.175
-0.135
-0.135
-0.125
-0.105
-0.145
-0.125
-0.115
-0.105
-0.105
-0.105
-0.125
-0.115
-0.085
-0.105
-0.125
-0.155
-0.125
-0.135
-0.125
-0.145
-0.135
-0.145
-0.125
-0.195
-0.175
-0.195
-0.165
-0.135
-0.155
-0.175
-0.175
-0.185
-0.175
-0.165
-0.175
-0.165
-0.145
-0.135
-0.185
-0.195
-0.175
-0.205
-0.165
-0.155
-0.175
-0.185
-0.135
-0.175
-0.155
-0.185
-0.155
-0.155
-0.145
-0.145
-0.155
-0.175
-0.105
-0.145
-0.085
-0.025
-0.045
0.015
0.095
0.075
0.065
0.045
-0.015
-0.105
-0.155
-0.155
-0.125
-0.135
-0.085
-0.085
-0.105
0.385
1.015
1.045
-0.115
-0.685
-0.515
-0.225
-0.135
-0.145
-0.155
-0.165
-0.165
-0.145
-0.125
-0.155
-0.155
-0.165
-0.105
-0.085
-0.105
-0.125
-0.085
-0.075
-0.095
-0.075
-0.025
-0.015
-0.005
-0.025
0.015
0.035
0.085
0.105
0.115
0.095
0.155
0.145
0.155
0.155
0.165
0.145
0.065
0.035
-0.035
-0.105
-0.165
-0.165
-0.205
-0.235
-0.245
-0.245
-0.255
-0.265
-0.235
-0.265
-0.265
-0.235
-0.225
-0.225
-0.235
-0.235
-0.235
-0.235
-0.185
-0.195
-0.285
-0.285
-0.185
-0.255
-0.225
-0.225
-0.235
-0.225
-0.195
-0.295
-0.095
-0.255
-0.235
-0.275
-0.265
-0.255
-0.275
-0.235
-0.265
-0.215
-0.295
-0.305
-0.245
-0.285
-0.265
-0.275
-0.275
-0.305
-0.265
-0.275
-0.265
-0.255
-0.255
-0.255
-0.245
-0.275
-0.255
-0.245
-0.255
-0.235
-0.245
-0.245
-0.255
-0.275
-0.235
-0.205
-0.185
-0.145
-0.075
-0.055
-0.065
-0.095
-0.135
-0.215
-0.255
-0.285
-0.265
-0.255
-0.265
-0.245
-0.215
-0.075
0.495
1.055
0.285
-0.585
-0.685
-0.525
-0.285
-0.235
-0.245
-0.235
-0.265
-0.245
-0.235
-0.255
-0.225
-0.215
-0.195
-0.215
-0.195
-0.175
-0.165
-0.185
-0.175
-0.155
-0.135
-0.105
-0.085
-0.065
-0.045
-0.055
-0.025
-0.025
0.015
0.055
0.065
0.075
0.085
0.065
0.075
0.075
0.045
0.015
-0.035
-0.105
-0.145
-0.205
-0.205
-0.235
-0.215
-0.255
-0.265
-0.245
-0.245
-0.265
-0.235
-0.215
-0.255
-0.255
-0.245
-0.255
-0.235
-0.255
-0.245
-0.235
-0.245
-0.215
-0.245
-0.265
-0.275
-0.215
-0.265
-0.255
-0.235
-0.225
-0.285
-0.275
-0.255
-0.225
-0.245
-0.235
-0.265
-0.285
-0.265
-0.245
-0.245
-0.265
-0.275
-0.265
-0.255
-0.215
-0.235
-0.245
-0.245
-0.265
-0.235
-0.205
-0.225
-0.235
-0.235
-0.245
-0.245
-0.245
-0.225
-0.225
-0.215
-0.225
-0.215
-0.205
-0.215
-0.195
-0.165
-0.135
-0.135
-0.085
-0.015
-0.025
-0.035
-0.075
-0.125
-0.185
-0.195
-0.215
-0.195
-0.195
-0.185
-0.165
-0.145
0.335
0.975
0.865
-0.255
-0.695
-0.515
-0.285
-0.175
-0.165
-0.175
-0.165
-0.165
-0.165
-0.165
-0.175
-0.155
-0.145
-0.135
-0.135
-0.135
-0.115
-0.115
-0.125
-0.115
-0.075
-0.055
-0.045
-0.035
-0.005
-0.015
-0.015
0.035
0.075
0.085
0.115
0.135
0.135
0.145
0.125
0.135
0.105
0.055
0.025
-0.035
-0.095
-0.125
-0.175
-0.175
-0.195
-0.205
-0.195
-0.195
-0.205
-0.205
-0.215
-0.205
-0.195
-0.175
-0.165
-0.175
-0.175
-0.175
-0.185
-0.175
-0.175
-0.165
-0.175
-0.165
-0.175
-0.175
-0.195
-0.185
-0.185
-0.195
-0.185
-0.195
-0.195
-0.195
-0.215
-0.215
-0.215
-0.205
-0.195
-0.195
-0.195
-0.205
-0.215
-0.215
-0.195
-0.205
-0.205
-0.225
-0.205
-0.185
-0.195
-0.215
-0.195
-0.195
-0.215
-0.185
-0.195
-0.195
-0.185
-0.195
-0.175
-0.185
-0.195
-0.175
-0.175
-0.145
-0.105
-0.095
-0.095
-0.045
-0.005
-0.005
-0.045
-0.125
-0.175
-0.185
-0.195
-0.195
-0.185
-0.185
-0.165
-0.145
0.275
0.995
0.885
-0.375
-0.735
-0.515
-0.245
-0.185
-0.225
-0.205
-0.195
-0.195
-0.195
-0.195
-0.185
-0.175
-0.205
-0.175
-0.175
-0.165
-0.145
-0.135
-0.125
-0.125
-0.125
-0.075
-0.065
-0.065
-0.045
-0.015
0.005
0.025
0.035
0.075
0.105
0.135
0.145
0.155
0.155
0.155
0.105
0.075
0.015
-0.045
-0.095
-0.145
-0.175
-0.205
-0.235
-0.235
-0.245
-0.245
-0.235
-0.245
-0.225
-0.225
-0.245
-0.235
-0.215
-0.205
-0.205
-0.185
-0.185
-0.195
-0.205
-0.195
-0.185
-0.195
-0.195
-0.205
-0.185
-0.195
-0.215
-0.205
-0.195
-0.205
-0.185
-0.195
-0.205
-0.195
-0.205
-0.195
-0.195
-0.205
-0.195
-0.185
-0.175
-0.195
-0.195
-0.185
-0.185
-0.175
-0.175
-0.175
-0.165
-0.165
-0.165
-0.165
-0.145
-0.145
-0.125
-0.115
-0.115
-0.125
-0.135
-0.135
-0.115
-0.115
-0.105
-0.115
-0.115
-0.095
-0.055
-0.055
-0.025
0.025
0.045
0.015
-0.005
-0.055
-0.125
-0.145
-0.155
-0.155
-0.145
-0.135
-0.115
-0.105
0.095
0.695
1.125
0.155
-0.595
-0.555
-0.315
-0.135
-0.155
-0.145
-0.145
-0.135
-0.125
-0.125
-0.125
-0.125
-0.155
-0.135
-0.105
-0.095
-0.085
-0.075
-0.065
-0.065
-0.065
-0.015
-0.025
-0.075
-0.015
0.005
0.055
0.055
0.075
0.005
0.095
0.165
0.105
0.235
0.365
0.315
0.305
0.225
0.195
0.115
0.075
0.025
-0.035
-0.065
-0.065
-0.095
-0.115
-0.095
-0.135
-0.135
-0.115
-0.115
-0.105
-0.115
-0.105
-0.105
-0.115
-0.125
-0.105
-0.115
-0.115
-0.135
-0.145
-0.145
-0.145
-0.135
-0.155
-0.155
-0.165
-0.185
-0.165
-0.165
-0.195
-0.175
-0.165
-0.185
-0.175
-0.185
-0.165
-0.185
-0.175
-0.145
-0.155
-0.165
-0.155
-0.185
-0.195
-0.165
-0.165
-0.165
-0.175
-0.165
-0.155
-0.185
-0.175
-0.165
-0.185
-0.155
-0.155
-0.185
-0.175
-0.175
-0.165
-0.165
-0.175
-0.155
-0.165
-0.155
-0.125
-0.095
-0.095
-0.065
0.005
0.045
0.005
-0.015
-0.095
-0.135
-0.155
-0.175
-0.185
-0.145
-0.155
-0.155
-0.135
0.055
0.725
1.225
0.155
-0.675
-0.535
-0.265
-0.105
-0.065
-0.095
-0.085
-0.075
-0.055
-0.065
-0.025
-0.045
-0.035
-0.025
-0.015
-0.005
0.015
0.005
0.025
0.015
0.035
0.045
0.065
0.075
0.095
0.095
0.135
0.105
0.155
0.195
0.215
0.245
0.255
0.265
0.255
0.245
0.215
0.165
0.145
0.095
0.045
-0.025
-0.075
-0.105
-0.125
-0.135
-0.165
-0.145
-0.155
-0.165
-0.155
-0.135
-0.135
-0.135
-0.125
-0.125
-0.105
-0.105
-0.115
-0.135
-0.095
-0.105
-0.105
-0.115
-0.115
-0.105
-0.115
-0.115
-0.115
-0.105
-0.105
-0.115
-0.135
-0.115
-0.115
-0.135
-0.125
-0.125
-0.115
-0.115
-0.105
-0.115
-0.115
-0.115
-0.115
-0.105
-0.105
-0.095
-0.095
-0.105
-0.095
-0.125
-0.115
-0.075
-0.105
-0.075
-0.075
-0.075
-0.075
-0.105
-0.075
-0.075
-0.055
-0.045
-0.045
-0.075
-0.065
-0.065
-0.015
0.035
0.015
0.045
0.085
0.165
0.125
0.075
0.035
-0.015
-0.025
-0.055
-0.095
-0.015
0.005
0.025
0.035
0.145
0.735
1.365
0.635
-0.435
-0.495
-0.255
-0.005
0.005
-0.005
-0.005
-0.005
-0.015
0.015
0.025
0.015
0.015
0.035
0.045
0.045
0.035
0.065
0.045
0.065
0.085
0.115
0.115
0.115
0.125
0.145
0.165
0.175
0.215
0.255
0.285
0.285
0.315
0.295
0.315
0.325
0.315
0.285
0.235
0.165
0.115
0.055
-0.005
-0.025
-0.035
-0.055
-0.055
-0.065
-0.065
-0.075
-0.075
-0.055
-0.035
-0.045
-0.055
-0.025
-0.025
-0.015
-0.045
-0.015
-0.025
-0.035
-0.005
-0.015
-0.035
-0.025
-0.035
-0.035
-0.025
-0.025
-0.015
-0.025
-0.025
-0.035
-0.055
-0.035
-0.035
-0.035
-0.025
-0.025
-0.045
-0.025
-0.045
-0.025
-0.025
-0.025
-0.005
-0.015
-0.015
-0.025
-0.025
-0.015
-0.035
-0.025
-0.035
-0.035
-0.025
-0.025
-0.035
-0.035
-0.025
-0.025
-0.015
-0.025
-0.015
-0.025
-0.025
-0.005
-0.015
-0.015
0.005
0.045
0.055
0.085
0.145
0.165
0.145
0.135
0.065
0.035
-0.025
-0.035
-0.045
-0.025
-0.025
-0.005
0.025
0.085
0.625
1.265
0.835
-0.315
-0.525
-0.305
-0.035
0.015
0.015
-0.015
-0.015
-0.015
0.015
-0.005
0.015
0.015
0.045
0.015
0.035
0.055
0.055
0.065
0.065
0.105
0.095
0.115
0.105
0.135
0.155
0.165
0.215
0.235
0.255
0.285
0.295
0.305
0.315
0.335
0.335
0.345
0.305
0.255
0.215
0.135
0.095
0.065
0.025
0.005
-0.015
-0.025
-0.025
-0.025
-0.015
-0.015
-0.015
-0.005
0.015
0.005
0.005
0.025
0.025
0.015
0.015
0.015
-0.015
-0.025
0.025
0.025
0.025
0.025
-0.005
0.005
-0.005
0.005
-0.005
-0.015
0.005
-0.005
0.005
-0.005
-0.015
-0.005
-0.025
-0.015
0.005
0.005
-0.005
-0.015
-0.005
-0.005
-0.005
-0.005
-0.015
-0.015
0.005
0.015
0.005
-0.005
-0.025
-0.005
0.015
-0.005
0.035
0.015
0.025
0.015
0.005
0.015
0.025
0.055
0.095
0.115
0.115
0.165
0.165
0.165
0.175
0.095
0.045
0.035
0.025
0.045
0.005
0.045
0.085
0.085
0.285
0.855
1.465
0.715
-0.345
-0.435
-0.205
0.055
0.085
0.085
0.045
0.075
0.065
0.075
0.095
0.105
0.105
0.115
0.115
0.115
0.125
0.125
0.135
0.165
0.185
0.165
0.205
0.205
0.205
0.235
0.265
0.285
0.305
0.335
0.355
0.375
0.375
0.385
0.425
0.405
0.405
0.395
0.335
0.285
0.225
0.185
0.135
0.115
0.105
0.095
0.085
0.095
0.075
0.075
0.085
0.085
0.115
0.115
0.095
0.105
0.095
0.165
0.155
0.115
0.195
0.125
0.125
0.105
0.095
0.095
0.105
0.095
0.075
0.095
0.085
0.035
0.095
0.095
0.065
0.065
0.085
0.065
0.065
0.065
0.055
0.045
0.065
0.045
0.075
0.065
0.035
0.025
0.035
0.035
0.015
0.025
0.025
0.015
0.025
-0.005
0.015
0.045
-0.015
0.055
0.015
0.015
0.005
0.015
-0.005
0.025
0.025
0.025
0.055
0.085
0.065
0.175
0.215
0.185
0.225
0.145
0.125
0.025
-0.025
-0.015
-0.025
0.015
-0.015
0.045
0.085
0.435
0.995
1.305
0.065
-0.545
-0.425
-0.085
0.015
0.025
0.005
-0.025
-0.045
-0.015
-0.025
0.015
0.015
0.015
0.005
0.035
0.025
0.015
0.055
0.025
0.085
0.095
0.085
0.125
0.085
0.135
0.135
0.195
0.235
0.245
0.205
0.265
0.235
0.335
0.325
0.345
0.325
0.325
0.255
0.155
0.185
0.075
0.075
-0.035
-0.015
-0.025
-0.095
-0.095
-0.055
-0.095
-0.085
-0.045
-0.085
-0.085
-0.085
0.035
-0.045
-0.035
0.015
0.045
-0.115
-0.075
-0.045
0.095
0.025
-0.145
0.095
0.225
-0.215
-0.205
-0.095
-0.095
-0.065
-0.055
-0.055
-0.035
-0.095
-0.075
-0.055
-0.055
-0.075
-0.065
-0.085
-0.075
-0.035
-0.055
-0.105
0.075
-0.075
-0.075
-0.125
-0.155
-0.105
-0.075
-0.045
-0.075
-0.145
-0.085
-0.095
-0.095
-0.035
-0.055
-0.155
-0.035
-0.085
-0.085
-0.185
-0.055
0.045
0.005
-0.045
0.085
0.105
0.135
0.025
0.305
0.135
-0.085
-0.235
-0.155
-0.145
-0.115
-0.085
-0.065
-0.035
0.255
0.855
1.245
0.275
-0.595
-0.545
-0.255
-0.085
-0.095
-0.055
-0.095
-0.105
-0.125
-0.095
0.095
-0.125
-0.125
-0.065
-0.045
-0.055
-0.065
-0.025
-0.015
-0.035
0.015
0.075
0.035
-0.065
0.085
0.065
0.075
0.105
0.135
0.225
0.165
0.165
0.215
0.245
0.215
0.205
0.175
0.185
0.135
0.105
0.045
-0.045
-0.105
-0.115
-0.135
-0.145
-0.125
-0.175
-0.115
-0.125
-0.145
-0.115
-0.155
-0.145
-0.125
-0.125
-0.115
-0.095
-0.125
-0.125
-0.145
-0.125
-0.105
-0.185
-0.135
-0.135
-0.125
-0.145
-0.165
-0.145
-0.165
-0.165
-0.145
-0.135
-0.145
-0.145
-0.165
-0.155
-0.135
-0.215
-0.145
-0.165
-0.165
-0.205
-0.185
-0.185
-0.145
-0.175
-0.135
-0.155
-0.165
-0.135
-0.095
-0.125
-0.175
-0.165
-0.175
-0.135
-0.155
-0.115
-0.095
-0.135
-0.115
-0.155
-0.125
-0.155
-0.165
-0.095
-0.025
-0.055
-0.025
0.085
-0.005
0.035
-0.035
-0.045
-0.105
-0.175
-0.185
-0.195
-0.135
-0.165
-0.215
-0.125
-0.085
0.355
0.935
0.875
-0.285
-0.785
-0.575
-0.285
-0.225
-0.195
-0.205
-0.195
-0.205
-0.225
-0.185
-0.155
-0.215
-0.175
-0.175
-0.205
-0.115
-0.145
-0.135
-0.115
-0.065
-0.055
-0.085
0.005
-0.085
0.015
-0.015
0.045
0.085
0.095
0.135
0.165
0.095
0.105
0.215
0.245
0.225
0.145
0.125
0.045
0.025
-0.085
-0.185
-0.175
-0.165
-0.165
-0.185
-0.225
-0.205
-0.205
-0.195
-0.185
-0.185
-0.195
-0.165
-0.185
-0.195
-0.175
-0.195
-0.205
-0.135
-0.205
-0.205
-0.215
-0.195
-0.225
-0.215
-0.185
-0.195
-0.215
-0.225
-0.255
-0.235
-0.215
-0.225
-0.215
-0.225
-0.225
-0.215
-0.225
-0.275
-0.195
-0.255
-0.185
-0.265
-0.195
-0.195
-0.225
-0.235
-0.195
-0.185
-0.175
-0.175
-0.065
-0.165
-0.175
-0.275
-0.175
-0.185
-0.135
-0.145
-0.125
0.145
0.165
0.125
-0.035
-0.085
-0.005
0.015
-0.085
-0.005
-0.025
-0.005
-0.255
-0.135
-0.125
-0.065
-0.105
0.305
1.025
1.125
-0.185
-0.445
-0.495
-0.355
-0.145
-0.145
-0.155
-0.205
-0.155
-0.115
-0.165
-0.155
-0.105
-0.175
-0.155
-0.095
-0.065
-0.115
-0.105
-0.085
-0.045
-0.075
-0.065
-0.065
-0.045
0.035
0.005
0.025
0.065
0.105
0.095
0.135
0.215
0.185
0.165
0.195
0.175
0.165
0.105
0.065
0.005
-0.055
-0.115
-0.145
-0.175
-0.185
-0.235
-0.235
-0.225
-0.245
-0.245
-0.175
-0.235
-0.235
-0.215
-0.185
-0.145
-0.185
-0.195
-0.185
-0.175
-0.145
-0.035
-0.185
-0.165
-0.095
-0.125
-0.245
-0.205
-0.055
-0.195
-0.295
0.155
-0.195
-0.265
-0.275
-0.265
-0.155
-0.115
-0.195
-0.125
-0.025
-0.085
-0.275
-0.175
-0.165
-0.175
-0.205
-0.145
-0.165
-0.055
0.015
-0.285
-0.295
-0.195
-0.195
-0.205
-0.075
-0.185
-0.155
-0.225
-0.175
-0.225
-0.105
-0.045
-0.075
0.075
-0.025
0.025
-0.095
-0.075
-0.085
-0.185
-0.135
-0.105
-0.255
-0.185
-0.145
-0.175
-0.125
0.335
0.905
1.175
-0.125
-0.775
-0.535
-0.325
-0.145
-0.235
-0.205
-0.155
-0.215
-0.235
-0.205
-0.165
-0.155
-0.105
-0.215
-0.175
-0.185
-0.165
-0.165
-0.135
-0.115
-0.135
-0.095
-0.055
-0.055
-0.045
-0.035
0.015
0.005
0.015
0.065
0.105
0.165
0.165
0.155
0.125
0.155
0.155
0.095
0.015
0.005
-0.115
-0.135
-0.205
-0.235
-0.245
-0.225
-0.265
-0.225
-0.225
-0.255
-0.255
-0.225
-0.225
-0.215
-0.235
-0.205
-0.185
-0.195
-0.195
-0.185
-0.195
-0.195
-0.185
-0.215
-0.195
-0.205
-0.255
-0.235
-0.225
-0.225
-0.175
-0.245
-0.195
-0.225
-0.235
-0.225
-0.235
-0.255
-0.205
-0.225
-0.215
-0.235
-0.195
-0.185
-0.215
-0.225
-0.215
-0.215
-0.185
-0.185
-0.225
-0.175
-0.205
-0.205
-0.165
-0.155
-0.165
-0.185
-0.185
-0.185
-0.185
-0.195
-0.135
-0.155
-0.145
-0.035
-0.105
-0.065
0.005
0.005
-0.005
-0.055
-0.125
-0.165
-0.195
-0.205
-0.185
-0.165
-0.155
-0.135
-0.125
0.285
0.905
0.965
-0.255
-0.715
-0.525
-0.235
-0.155
-0.185
-0.195
-0.165
-0.195
-0.175
-0.165
-0.165
-0.155
-0.155
-0.155
-0.135
-0.135
-0.125
-0.115
-0.105
-0.105
-0.055
-0.095
-0.055
-0.045
-0.025
0.015
0.035
0.045
0.085
0.065
0.105
0.155
0.155
0.195
0.185
0.185
0.145
0.085
0.045
-0.015
-0.055
-0.115
-0.135
-0.165
-0.195
-0.235
-0.215
-0.205
-0.185
-0.185
-0.195
-0.175
-0.195
-0.185
-0.165
-0.135
-0.105
-0.125
-0.155
-0.165
-0.135
-0.145
-0.115
-0.115
-0.105
-0.135
-0.155
-0.145
-0.175
-0.145
-0.145
-0.155
-0.155
-0.155
-0.145
-0.085
-0.135
-0.195
-0.135
-0.135
-0.195
-0.175
-0.145
-0.185
-0.185
-0.235
-0.165
-0.175
-0.195
-0.095
-0.195
-0.185
-0.205
-0.185
-0.155
-0.115
-0.245
-0.055
-0.145
-0.185
-0.105
-0.065
-0.065
-0.035
0.035
0.035
0.015
0.055
-0.065
-0.145
-0.145
-0.115
-0.165
-0.115
-0.085
-0.115
-0.085
0.255
0.845
1.145
0.115
-0.575
-0.535
-0.305
-0.145
-0.125
-0.145
-0.125
-0.135
-0.145
-0.135
-0.135
-0.105
-0.165
-0.135
-0.115
-0.105
-0.105
-0.105
-0.065
-0.115
-0.105
-0.035
-0.045
-0.035
-0.015
0.015
0.015
0.045
0.095
0.085
0.105
0.125
0.175
0.175
0.205
0.185
0.225
0.115
0.095
0.075
0.015
-0.055
-0.085
-0.065
-0.085
-0.135
-0.175
-0.165
-0.085
-0.145
-0.175
-0.015
-0.185
-0.185
-0.085
0.005
-0.205
-0.155
-0.065
-0.115
-0.175
-0.015
-0.115
-0.095
-0.115
-0.105
-0.125
-0.135
-0.135
-0.125
-0.135
-0.085
-0.145
-0.135
-0.045
-0.145
-0.175
-0.165
-0.165
-0.155
-0.145
-0.135
-0.145
-0.145
-0.175
-0.145
-0.165
-0.155
-0.155
-0.145
-0.145
-0.145
-0.135
-0.135
-0.165
-0.135
-0.145
-0.115
-0.135
-0.125
-0.055
-0.065
-0.065
0.095
-0.005
-0.025
0.125
0.005
-0.045
-0.175
-0.135
-0.145
0.045
-0.045
0.025
0.045
0.145
0.805
1.435
0.305
-0.495
-0.445
-0.325
-0.025
-0.075
-0.125
-0.115
-0.065
-0.085
-0.085
-0.055
-0.075
-0.085
-0.065
-0.095
-0.065
-0.035
-0.045
-0.055
-0.005
-0.055
0.075
0.045
-0.075
0.005
0.045
0.085
0.085
0.075
0.095
0.185
0.175
0.175
0.275
0.265
0.255
0.185
0.235
0.125
0.135
0.175
-0.085
-0.095
-0.065
-0.015
-0.165
-0.255
-0.125
-0.045
-0.175
-0.015
-0.095
-0.175
-0.145
-0.175
-0.085
-0.095
-0.065
-0.105
-0.115
-0.125
-0.155
-0.115
-0.055
-0.025
-0.075
-0.065
-0.105
-0.205
0.005
-0.105
-0.195
-0.155
-0.095
-0.165
-0.155
-0.115
-0.035
-0.215
-0.165
-0.055
-0.195
-0.125
-0.085
-0.175
-0.115
-0.155
-0.125
-0.105
-0.105
-0.225
0.105
-0.185
-0.045
-0.185
-0.185
-0.165
-0.135
-0.105
-0.135
-0.055
0.025
-0.135
-0.225
-0.155
-0.125
-0.105
-0.075
-0.055
-0.035
-0.005
0.005
0.035
-0.005
-0.025
-0.005
-0.105
-0.225
-0.125
-0.175
-0.185
-0.065
-0.065
0.045
0.435
1.205
1.125
-0.335
-0.605
-0.365
-0.175
-0.015
-0.065
-0.165
-0.105
-0.075
-0.125
-0.035
-0.055
-0.075
-0.195
-0.105
-0.075
-0.095
-0.045
-0.025
-0.035
-0.035
-0.035
-0.005
-0.005
-0.005
0.035
0.045
0.065
0.085
0.145
0.155
0.175
0.195
0.215
0.265
0.245
0.275
0.175
0.175
0.135
0.085
-0.015
-0.025
-0.075
-0.125
-0.135
-0.085
-0.165
-0.135
-0.115
-0.105
-0.115
-0.115
-0.115
-0.115
-0.115
-0.125
-0.075
-0.075
-0.075
-0.075
-0.125
-0.105
-0.085
-0.065
-0.075
-0.065
-0.105
-0.115
-0.155
-0.125
-0.115
-0.115
-0.135
-0.105
-0.115
-0.105
-0.125
-0.095
-0.105
-0.085
-0.075
-0.095
-0.085
-0.075
-0.115
-0.085
-0.095
-0.095
-0.085
-0.065
-0.045
-0.075
-0.065
-0.085
-0.075
-0.075
-0.055
-0.055
-0.055
-0.025
-0.065
-0.045
-0.055
-0.055
-0.065
-0.035
-0.035
0.005
-0.005
0.015
0.045
0.085
0.135
0.135
0.095
0.055
-0.015
-0.065
-0.085
-0.075
-0.075
-0.085
-0.045
-0.015
0.015
0.605
1.205
0.735
-0.445
-0.635
-0.365
-0.115
-0.065
-0.075
-0.065
-0.085
-0.085
-0.085
-0.055
-0.045
-0.055
-0.065
-0.025
-0.065
-0.035
0.005
0.005
0.035
-0.005
0.025
0.055
0.085
0.105
0.075
0.085
0.165
0.145
0.165
0.205
0.205
0.235
0.255
0.245
0.295
0.285
0.205
0.165
0.125
0.075
0.025
-0.035
-0.115
-0.085
-0.105
-0.145
-0.145
-0.125
-0.105
-0.185
-0.145
-0.225
-0.125
-0.065
-0.095
-0.105
-0.105
-0.125
-0.125
-0.145
-0.105
-0.145
-0.155
-0.135
-0.155
-0.175
-0.175
-0.185
-0.165
-0.175
-0.175
-0.165
-0.165
-0.195
-0.195
-0.195
-0.185
-0.175
-0.165
-0.165
-0.155
-0.175
-0.125
-0.165
-0.155
-0.165
-0.125
-0.135
-0.165
-0.155
-0.145
-0.165
-0.125
-0.175
-0.185
-0.135
-0.125
-0.125
-0.145
-0.165
-0.155
-0.125
-0.185
-0.125
-0.105
-0.095
-0.065
-0.105
-0.055
0.025
0.035
0.005
-0.005
-0.065
-0.145
-0.185
-0.185
-0.195
-0.175
-0.135
-0.135
-0.105
0.105
0.665
1.285
0.375
-0.535
-0.615
-0.415
-0.145
-0.095
-0.145
-0.175
-0.115
-0.065
-0.145
-0.145
-0.125
-0.095
-0.125
-0.075
-0.075
-0.065
-0.035
-0.015
-0.035
-0.005
-0.005
0.005
-0.015
0.035
0.065
0.085
0.105
0.125
0.125
0.185
0.195
0.215
0.265
0.215
0.175
0.265
0.195
0.165
0.115
0.045
0.015
-0.025
-0.035
-0.045
-0.075
-0.075
-0.075
-0.085
-0.075
-0.055
-0.045
-0.035
-0.055
-0.015
0.005
-0.005
-0.005
-0.035
-0.045
-0.025
-0.025
-0.045
-0.025
-0.025
-0.065
-0.015
-0.065
-0.055
-0.055
-0.045
-0.075
-0.055
-0.055
-0.055
-0.055
-0.065
-0.075
-0.075
-0.065
-0.055
-0.075
-0.075
-0.055
-0.075
-0.085
-0.065
-0.055
-0.075
-0.055
-0.075
-0.085
-0.055
-0.065
-0.045
-0.065
-0.075
-0.045
-0.045
-0.045
-0.055
-0.065
-0.035
-0.025
0.055
0.065
0.095
0.095
0.105
0.105
0.125
0.065
0.005
-0.025
-0.075
-0.075
-0.085
-0.055
-0.025
-0.025
0.125
0.765
1.465
1.005
-0.345
-0.585
-0.325
-0.045
-0.045
-0.035
-0.055
-0.035
-0.015
-0.075
-0.045
-0.045
-0.035
-0.025
-0.025
0.015
0.005
-0.015
0.005
0.025
0.075
0.075
0.085
0.075
0.115
0.105
0.135
0.155
0.175
0.225
0.275
0.295
0.295
0.295
0.315
0.335
0.285
0.305
0.225
0.175
0.125
0.025
-0.005
-0.025
-0.055
-0.115
-0.105
-0.085
-0.155
-0.155
-0.105
-0.095
-0.095
-0.075
-0.095
-0.085
-0.085
-0.105
-0.085
-0.105
-0.075
-0.065
-0.075
-0.085
-0.105
-0.115
-0.075
-0.085
-0.075
-0.075
-0.085
-0.105
-0.085
-0.145
-0.105
-0.085
-0.095
-0.105
-0.105
-0.085
-0.085
-0.095
-0.075
-0.095
-0.095
-0.095
-0.065
-0.095
-0.035
-0.075
-0.075
-0.115
-0.115
-0.025
-0.025
0.145
0.015
-0.195
-0.175
-0.115
-0.045
-0.005
-0.065
-0.055
0.025
0.025
0.135
0.045
0.075
0.125
0.095
0.045
0.005
-0.075
-0.105
-0.095
-0.095
-0.095
-0.055
-0.025
0.015
0.345
0.905
1.175
0.085
-0.635
-0.505
-0.195
-0.045
-0.095
-0.085
-0.065
-0.115
-0.095
-0.055
-0.045
-0.095
-0.095
-0.085
-0.065
-0.035
-0.035
-0.045
0.015
0.095
-0.015
0.045
0.045
0.025
0.065
0.105
0.105
0.125
0.145
0.175
0.215
0.255
0.245
0.245
0.215
0.225
0.205
0.185
0.115
0.075
0.045
-0.025
-0.085
-0.165
-0.185
-0.135
-0.125
-0.125
-0.165
-0.145
-0.165
-0.125
-0.135
-0.155
-0.085
-0.065
-0.115
-0.085
-0.105
-0.085
-0.095
-0.095
-0.095
-0.065
-0.105
-0.135
-0.115
-0.095
-0.115
-0.125
-0.085
-0.105
-0.135
-0.095
-0.105
-0.115
-0.105
-0.075
-0.135
-0.085
-0.095
-0.115
-0.145
-0.125
-0.145
-0.145
-0.105
-0.115
-0.015
-0.095
-0.155
-0.185
-0.165
-0.145
-0.145
-0.165
-0.115
-0.145
-0.135
-0.115
-0.135
-0.115
-0.115
-0.055
-0.025
-0.035
0.055
0.055
0.005
0.035
-0.035
-0.065
-0.115
-0.155
-0.135
-0.115
-0.145
-0.115
-0.045
0.025
0.585
1.205
0.695
-0.445
-0.635
-0.405
-0.155
-0.105
-0.065
-0.115
-0.145
-0.135
-0.155
-0.115
-0.065
-0.085
-0.145
-0.055
-0.095
-0.065
-0.075
-0.055
-0.025
-0.015
-0.035
-0.005
0.015
-0.015
0.005
0.055
0.105
0.135
0.155
0.165
0.155
0.185
0.205
0.215
0.235
0.215
0.195
0.095
0.075
0.045
-0.025
-0.065
-0.095
-0.105
-0.125
-0.125
-0.175
-0.145
-0.125
-0.155
-0.175
-0.085
-0.105
-0.115
-0.125
-0.095
-0.125
-0.125
-0.115
-0.135
-0.105
-0.105
-0.095
-0.125
-0.195
-0.115
-0.085
-0.125
-0.135
-0.155
-0.145
-0.125
-0.135
-0.145
-0.115
-0.155
-0.115
-0.105
-0.145
-0.135
-0.135
-0.135
-0.115
-0.115
-0.125
-0.165
-0.135
-0.135
-0.085
-0.085
-0.165
-0.095
-0.125
-0.125
-0.115
-0.075
-0.065
-0.155
-0.105
-0.085
-0.085
-0.105
-0.045
-0.025
0.005
0.095
0.065
0.065
0.095
0.025
-0.045
-0.095
-0.135
-0.135
-0.095
-0.105
-0.085
-0.045
0.005
0.585
1.235
0.755
-0.455
-0.655
-0.415
-0.115
-0.095
-0.125
-0.115
-0.115
-0.125
-0.145
-0.115
-0.085
-0.075
-0.125
-0.115
-0.115
-0.045
-0.055
-0.065
0.005
-0.015
-0.045
-0.035
-0.015
0.025
0.035
0.075
0.095
0.125
0.105
0.125
0.175
0.175
0.245
0.225
0.205
0.165
0.145
0.095
0.045
0.005
-0.055
-0.065
-0.115
-0.125
-0.165
-0.165
-0.155
-0.145
-0.145
-0.155
-0.145
-0.135
-0.115
-0.135
-0.135
-0.135
-0.095
-0.115
-0.105
-0.115
-0.135
-0.125
-0.115
-0.135
-0.115
-0.115
-0.085
-0.135
-0.145
-0.145
-0.125
-0.115
-0.125
-0.125
-0.125
-0.155
-0.095
-0.115
-0.115
-0.115
-0.105
-0.115
-0.125
-0.115
-0.105
-0.145
-0.115
-0.115
-0.125
-0.105
-0.095
-0.095
-0.095
-0.105
-0.085
-0.085
-0.075
-0.005
-0.015
0.015
0.085
0.105
0.075
0.075
0.005
-0.045
-0.075
-0.105
-0.105
-0.105
-0.085
-0.035
-0.035
0.195
0.825
1.445
0.495
-0.545
-0.575
-0.305
-0.095
-0.065
-0.065
-0.085
-0.085
-0.085
-0.075
-0.065
-0.055
-0.045
-0.035
-0.035
-0.035
-0.045
-0.005
0.005
0.005
0.015
0.025
0.045
0.075
0.055
0.105
0.105
0.135
0.195
0.175
0.205
0.215
0.215
0.265
0.265
0.245
0.255
0.205
0.145
0.075
0.025
-0.005
-0.035
-0.065
-0.085
-0.095
-0.095
-0.115
-0.125
-0.095
-0.075
-0.085
-0.095
-0.055
-0.065
-0.045
-0.075
-0.075
-0.055
-0.065
-0.065
-0.065
-0.065
-0.065
-0.075
-0.075
-0.075
-0.065
-0.085
-0.085
-0.075
-0.105
-0.115
-0.075
-0.075
-0.105
-0.075
-0.095
-0.095
-0.085
-0.105
-0.105
-0.115
-0.085
-0.075
-0.095
-0.075
-0.095
-0.115
-0.095
-0.075
-0.085
-0.085
-0.075
-0.085
-0.065
-0.095
-0.065
-0.055
-0.015
0.025
0.045
0.065
0.105
0.075
0.085
0.025
-0.045
-0.065
-0.075
-0.085
-0.065
-0.095
-0.075
-0.025
0.105
0.715
1.395
0.625
-0.505
-0.565
-0.305
-0.095
-0.055
-0.045
-0.075
-0.085
-0.065
-0.085
-0.055
-0.065
-0.055
-0.025
-0.045
-0.025
-0.025
-0.035
-0.005
0.005
0.015
0.005
0.035
0.055
0.065
0.075
0.105
0.145
0.175
0.155
0.195
0.225
0.245
0.235
0.245
0.245
0.225
0.205
0.165
0.115
0.055
0.005
-0.045
-0.065
-0.075
-0.115
-0.105
-0.125
-0.125
-0.115
-0.115
-0.105
-0.095
-0.105
-0.075
-0.075
-0.095
-0.075
-0.095
-0.075
-0.085
-0.095
-0.085
-0.085
-0.085
-0.095
-0.105
-0.105
-0.105
-0.105
-0.115
-0.105
-0.115
-0.135
-0.125
-0.115
-0.115
-0.125
-0.125
-0.115
-0.105
-0.125
-0.125
-0.115
-0.135
-0.125
-0.115
-0.115
-0.115
-0.125
-0.115
-0.115
-0.115
-0.125
-0.115
-0.095
-0.115
-0.115
-0.105
-0.135
-0.125
-0.115
-0.105
-0.085
-0.045
-0.025
-0.025
0.025
0.085
0.065
0.055
0.005
-0.065
-0.125
-0.135
-0.145
-0.125
-0.115
-0.115
-0.065
-0.035
0.425
1.105
1.055
-0.265
-0.685
-0.475
-0.155
-0.085
-0.115
-0.095
-0.095
-0.105
-0.085
-0.095
-0.105
-0.085
-0.095
-0.075
-0.055
-0.055
-0.045
-0.025
-0.025
0.005
-0.025
-0.015
0.005
0.025
0.045
0.065
0.095
0.115
0.125
0.155
0.175
0.215
0.215
0.215
0.215
0.195
0.165
0.125
0.085
-0.005
-0.045
-0.085
-0.135
-0.125
-0.145
-0.175
-0.185
-0.205
-0.205
-0.185
-0.185
-0.185
-0.185
-0.175
-0.155
-0.175
-0.165
-0.165
-0.155
-0.165
-0.165
-0.155
-0.165
-0.165
-0.165
-0.175
-0.185
-0.175
-0.185
-0.185
-0.155
-0.205
-0.205
-0.165
-0.185
-0.175
-0.205
-0.185
-0.155
-0.155
-0.175
-0.165
-0.155
-0.175
-0.175
-0.155
-0.175
-0.125
-0.165
-0.165
-0.105
-0.135
-0.115
-0.215
-0.185
-0.115
-0.135
-0.105
-0.095
-0.125
-0.135
-0.115
-0.115
-0.065
-0.035
-0.025
0.055
0.005
0.005
0.095
0.105
0.115
0.115
0.025
-0.035
-0.105
-0.105
-0.085
-0.085
-0.065
-0.015
0.035
0.465
1.115
1.245
-0.105
-0.625
-0.405
-0.135
-0.075
-0.045
-0.055
-0.095
-0.075
-0.075
-0.065
-0.045
-0.045
-0.035
-0.045
-0.015
-0.035
-0.035
0.075
-0.025
-0.015
0.015
0.015
0.045
0.045
0.075
0.105
0.115
0.155
0.165
0.175
0.205
0.185
0.265
0.265
0.245
0.265
0.245
0.225
0.165
0.115
0.055
0.005
-0.065
-0.075
-0.095
-0.115
-0.115
-0.155
-0.135
-0.155
-0.145
-0.115
-0.115
-0.115
-0.115
-0.095
-0.065
-0.085
-0.115
-0.125
-0.115
-0.105
-0.145
-0.115
-0.055
-0.055
-0.145
-0.155
-0.105
-0.165
-0.185
-0.025
-0.065
-0.125
-0.145
-0.195
-0.225
-0.225
-0.175
-0.125
-0.105
-0.125
-0.115
-0.145
-0.145
-0.145
-0.135
-0.145
-0.165
-0.125
-0.125
-0.155
-0.155
-0.145
-0.155
-0.155
-0.135
-0.155
-0.145
-0.145
-0.125
-0.135
-0.185
-0.155
-0.115
-0.055
-0.025
-0.065
0.005
0.075
0.025
0.025
-0.015
-0.095
-0.145
-0.185
-0.205
-0.185
-0.195
-0.165
-0.125
-0.085
0.465
1.185
0.845
-0.425
-0.745
-0.535
-0.185
-0.155
-0.215
-0.065
-0.205
-0.225
-0.215
-0.185
-0.185
-0.185
-0.165
-0.165
-0.175
-0.165
-0.135
-0.125
-0.125
-0.105
-0.085
-0.075
-0.085
-0.045
-0.045
-0.025
0.005
0.035
0.045
0.075
0.105
0.115
0.105
0.145
0.145
0.115
0.085
0.085
0.045
-0.005
-0.135
-0.185
-0.125
-0.165
-0.205
-0.205
-0.205
-0.235
-0.265
-0.225
-0.195
-0.205
-0.235
-0.195
-0.185
-0.155
-0.215
-0.205
-0.185
-0.195
-0.225
-0.185
-0.175
-0.185
-0.235
-0.265
-0.145
-0.215
-0.225
-0.185
-0.205
-0.255
-0.185
-0.205
-0.205
-0.205
-0.195
-0.185
-0.195
-0.225
-0.195
-0.195
-0.195
-0.185
-0.215
-0.185
-0.185
-0.185
-0.235
-0.195
-0.185
-0.185
-0.195
-0.195
-0.165
-0.185
-0.215
-0.165
-0.185
-0.195
-0.195
-0.135
-0.195
-0.145
