7
76
201
324
447
569
692
817
943
1067
1193
1317
1439
1553
1666
1780
1895
2017
2138
2259
2493
2608
2725
2845
2964
3082
3202
3325
3445
3566
3686
3804
3924
4044
4162
4283
4406
4527
4651
4776
4899
5023
5149
5272
5397
5522
5648
5774
5895
6018
6140
6262
6387
6512
6638
6762
6883
7004
7125
7245
7362
7479
7595
7710
7827
7946
8067
8186
8303
8420
8537
8653
8767
8875
8983
9094
9211
9330
9452
9570
9691
9810
9928
10046
10165
10284
10402
10515
10631
10748
10866
10986
11108
11226
11343
11458
11573
11688
11808
11932
12056
12174
12293
12409
12524
12641
12762
12885
13010
13133
13260
13387
13513
13639
13764
13889
14013
14139
14265
14391
14518
14644
14773
14902
15031
15162
15289
15418
15546
15674
15796
15919
16044
16165
16285
16412
16541
16668
16792
16917
17040
17163
17281
17400
17524
17651
17776
17901
18022
18143
18264
18387
18506
18626
18745
18862
18979
19103
19229
19358
19492
19624
19758
19891
20020
20142
20260
20376
20492
20606
20715
20825
20936
21045
21155
21264
21370
21478
21585
21691
21795
21899
22005
22112
22216
22325
22433
22537
22641
22745
22846
22947
23046
23144
23244
23340
23437
23533
23625
23720
23815
23841
23906
24001
24095
24190
24286
24383
24483
24521
24583
24683
24783
24882
24981
25078
25175
25273
25369
25467
25565
25662
25762
25860
25960
26062
26161
26262
26358
26456
26555
26653
26750
26848
26945
27043
27137
27235
27334
27431
27531
27629
27731
27831
27936
28044
28152
28260
28367
28472
28575
28674
28774
28869
28964
29058
29151
29249
29345
29443
29545
29647
29746
29846
29948
30049
30150
30257
30365
30481
30595
30715
30837
30954
31073
31185
31299
31409
31519
31628
31735
31845
31959
32077
32193
32311
32425
32540
32655
32772
32887
33003
33120
33234
33350
33470
33588
33707
33829
33948
34073
34195
34317
34432
34545
34655
34767
34880
34993
35107
35225
35343
35467
35588
35711
35828
35943
36052
36159
36261
36362
36476
36586
36703
36819
36931
37043
37151
37257
37363
37468
37572
37683
37796
37906
38021
38129
38237
38346
38453
38559
38664
38769
38873
38978
39078
39184
39285
39387
39489
39602
39708
39815
39922
40035
40158
40280
40409
40546
40684
40823
40964
41090
41216
41330
41445
41562
41697
41840
41987
42133
42276
42410
42528
42636
42741
42846
42961
43072
43181
43298
43423
43561
43691
43824
43951
44079
44203
44321
44434
44544
44646
44743
44837
44925
45014
45112
45227
45333
45452
45588
45713
45841
45965
46091
46217
46330
46439
46543
46654
46776
46899
47024
47104
47145
47268
47389
47508
47625
47742
47863
48000
48140
48277
48417
48554
48693
48821
48943
49063
49183
49308
49441
49570
49701
49830
49952
50078
50201
50320
50445
50573
50635
50693
50752
50809
50922
51028
51135
51241
51340
51439
51536
51633
51727
51822
51916
52012
52111
52214
52313
52422
52530
52639
52760
52875
52983
53092
53200
53301
53402
53504
53609
53717
53828
53935
54038
54144
54250
54357
54460
54567
54677
54785
54893
55001
55106
55210
55316
55422
55525
55626
55725
55826
55931
56035
56137
56237
56337
56441
56543
56648
56753
56857
56964
57070
57173
57275
57376
57473
57570
57667
57765
57863
57967
58076
58192
58302
58413
58520
58621
58720
58820
58921
59026
59135
59256
59371
59481
59590
59696
59806
59911
60015
60120
60225
60329
60435
60537
60650
60764
60874
60985
61101
61221
61337
61456
61574
61687
61804
61920
62045
62165
62248
62287
62398
62510
62614
62723
62836
62950
63071
63195
63320
63446
63566
63692
63820
63948
64076
64195
64315
64430
64542
64652
64760
64864
64968
65076
65187
65295
65405
65514
65623
65738
65854
65968
66082
66194
66304
66418
66532
66641
66752
66862
66972
67086
67201
67314
67429
67539
67649
67758
67865
67973
68077
68186
68295
68400
68504
68608
68712
68814
68920
69028
69132
69238
69345
69448
69554
69657
69761
69861
69965
70072
70183
70294
70404
70517
70632
70742
70853
70962
71065
71167
71266
71363
71465
71565
71670
71774
71878
71988
72098
72210
72315
72423
72529
72635
72738
72839
72942
73044
73144
73245
73347
73448
73549
73651
73754
73855
73957
74060
74162
74266
74368
74473
74578
74684
74790
74895
74999
75103
75201
75303
75402
75499
75598
75699
75796
75894
75991
76087
76183
76276
76368
76462
76555
76648
76744
76838
76936
77034
77129
77227
77327
77425
77529
77631
77725
77819
77925
78033
78138
78241
78345
78448
78556
78660
78765
78869
78968
79067
79164
79263
79359
79457
79547
79639
79727
79810
79894
79973
80054
80133
80210
80287
80362
80438
80512
80584
80655
80728
80800
80869
80940
81011
81083
81154
81225
81296
81366
81440
81514
81588
81665
81741
81819
81896
81976
82056
82135
82217
82297
82380
82463
82548
82634
82722
82810
82898
82987
83072
83159
83243
83326
83409
83493
83576
83657
83737
83819
83900
83985
84071
84159
84248
84338
84426
84516
84604
84694
84781
84872
84961
85049
85137
85225
85311
85398
85487
85578
85678
85785
85892
86004
86111
86219
86322
86426
86525
86625
86721
86819
86914
87009
87102
87195
87288
87381
87475
87565
87658
87752
87845
87942
88042
88145
88248
88350
88453
88556
88655
88753
88847
88944
89039
89141
89245
89351
89455
89559
89663
89768
89877
89982
90092
90209
90320
90435
90551
90667
90782
90891
90996
91101
91210
91322
91427
91531
91636
91739
91843
91955
92064
92176
92291
92402
92518
92637
92750
92867
92985
93099
93222
93353
93482
93610
93739
93860
93980
94105
94225
94348
94467
94589
94711
94835
94960
95082
95204
95326
95453
95584
95715
95840
95969
96096
96219
96340
96462
96585
96712
96843
96977
97109
97231
97350
97470
97587
97706
97829
97956
98072
98195
98314
98431
98545
98660
98776
98894
99012
99129
99242
99354
99471
99600
99731
99862
99991
100115
100237
100363
100493
100626
100752
100878
101007
101132
101259
101380
101505
101631
101756
101873
101991
102112
102237
102358
102479
102600
102723
102846
102963
103081
103202
103322
103445
103570
103693
103809
103926
104036
104144
104248
104356
104473
104594
104716
104831
104952
105072
105188
105300
105412
105522
105630
105741
105856
105974
106100
106234
106369
106499
106629
106760
106883
106999
107114
107227
107339
107457
107583
107704
107827
107949
108068
108192
108314
108437
108558
108674
108789
108901
109014
109129
109242
109358
109472
109587
109698
109812
109924
110040
110156
110271
110388
110506
110618
110732
110843
110953
111065
111181
111299
111414
111530
111642
111753
111864
111974
112089
112205
112320
112438
112553
112671
112783
112893
113000
113108
113220
113331
113443
113551
113660
113772
113888
114001
114117
114231
114345
114461
114579
114699
114822
114951
115076
115202
115322
115442
115561
115672
115788
115909
116032
116165
116295
116428
116559
116683
116805
116925
117041
117154
117267
117375
117486
117600
117716
117831
117945
118062
118182
118303
118421
118540
118659
118775
118893
119010
119123
119236
119345
119459
119578
119700
119827
119952
120076
120201
120324
120446
120567
120691
120818
120948
121080
121211
121338
121465
121586
121707
121832
121956
122081
122209
122340
122467
122596
122726
122853
122977
123105
123234
123359
123485
123607
123726
123847
123966
124089
124214
124340
124461
124584
124707
124827
124946
125066
125187
125303
125425
125548
125677
125802
125928
126053
126177
126305
126435
126563
126682
126803
126924
127043
127168
127292
127417
127544
127667
127796
127927
128060
128192
128319
128449
128581
128708
128838
128967
129095
129221
129346
129468
129583
129696
129806
129916
130030
130149
130269
130388
130501
130616
130731
130845
130966
131089
131206
131326
131443
131564
131679
131797
131918
132041
132160
132276
132387
132494
132603
132718
132834
132952
133071
133186
133303
133418
133528
133637
133744
133852
133962
134079
134196
134320
134440
134561
134682
134797
134913
135028
135143
135262
135386
135511
135636
135762
135888
136011
136128
136245
136357
136464
136567
136669
136768
136865
136965
137062
137157
137255
137352
137447
137544
137640
137737
137831
137929
138025
138121
138215
138308
138402
138494
138585
138677
138768
138862
138955
139048
139144
139239
139334
139430
139522
139616
139709
139802
139894
139990
140082
140177
140272
140373
140469
140569
140669
140768
140870
140971
141072
141174
141276
141377
141481
141586
141687
141791
141893
141998
142106
142213
142324
142436
142546
142658
142767
142880
142993
143104
143216
143327
143443
143560
143675
143792
143908
144026
144144
144261
144381
144496
144616
144737
144857
144984
145109
145234
145360
145480
145593
145711
145823
145930
146039
146147
146254
146362
146471
146579
146690
146800
146914
147033
147150
147270
147391
147505
147622
147740
147854
147965
148073
148185
148305
148417
148533
148653
148768
148890
149014
149135
149261
149387
149512
149645
149778
149907
150038
150171
150296
150423
150550
150675
150804
150936
151062
151192
151322
151448
151579
151709
151835
151969
152103
152234
152369
152501
152628
152757
152889
153019
153152
153285
153412
153541
153670
153796
153920
154048
154178
154304
154437
154572
154710
154843
154980
155111
155247
155381
155514
155651
155782
155912
156047
156173
156300
156432
156563
156688
156818
156949
157074
157203
157335
157460
157587
157715
157846
157969
158098
158229
158355
158484
158616
158741
158871
159003
159131
159262
159391
159513
159634
159760
159890
160016
160147
160278
160405
160536
160661
160785
160913
161036
161167
161301
161429
161560
161693
161820
161950
162081
162206
162334
162457
162584
162715
162846
162970
163097
163222
163352
163483
163609
163734
163865
163992
164125
164257
164383
164512
164643
164770
164901
165033
165166
165292
165418
165541
165665
165792
165917
166037
166160
166285
166406
166531
166657
166776
166898
167022
167144
167262
167384
167511
167638
167763
167892
168023
168150
168280
168409
168535
168665
168796
168922
169049
169178
169304
169430
169560
169694
169823
169957
170090
170220
170348
170477
170609
170735
170864
170994
171126
171255
171389
171522
171651
171781
171910
172029
172150
172274
172403
172525
172649
172778
172910
173035
173165
173296
173420
173549
173679
173809
173945
174084
174217
174349
174480
174606
174729
174850
174975
175105
175234
175357
175480
175605
175732
175854
175980
176113
176249
176377
176511
176643
176767
176893
177018
177143
177270
177399
177529
177657
177785
177916
178046
178170
178297
178426
178554
178682
178817
178957
179092
179220
179349
179481
179614
179741
179872
180008
180141
180271
180403
180538
180663
180789
180917
181039
181164
181295
181430
181559
181692
181831
181966
182098
182233
182368
182493
182617
182736
182857
182974
183096
183222
183349
183468
183591
183713
183828
183941
184048
184157
184268
184381
184498
184619
184742
184867
184991
185117
185246
185370
185503
185636
185765
185893
186019
186144
186261
186383
186505
186629
186763
186901
187040
187176
187314
187451
187582
187712
187842
187971
188096
188223
188344
188472
188601
188726
188858
188988
189115
189242
189372
189503
189632
189763
189895
190019
190140
190263
190381
190503
190630
190757
190886
191020
191157
191292
191428
191571
191719
191859
191998
192142
192288
192427
192573
192719
192858
193002
193148
193285
193429
193578
193720
193863
194008
194156
194298
194438
194581
194724
194861
195004
195145
195277
195419
195565
195700
195845
195991
196134
196274
196420
196570
196714
196853
196994
197141
197285
197440
197596
197748
197889
198032
198177
198322
198459
198604
198755
198905
199044
199186
199329
199475
199610
199756
199906
200045
200186
200328
200463
200591
200724
200851
200987
201130
201268
201398
201535
201674
201802
201936
202067
202197
202335
202469
202606
202745
202880
203013
203149
203284
203416
203552
203692
203832
203966
204104
204241
204371
204509
204651
204794
204931
205073
205218
205358
205497
205640
205785
205927
206063
206201
206343
206484
206627
206775
206924
207062
207207
207353
207492
207633
207776
207913
208058
208205
208352
208489
208630
208775
208922
209061
209205
209356
209506
209649
209790
209933
210083
210225
210372
210522
210670
210816
210951
211094
211237
211376
211507
211636
211763
211889
212019
212158
212293
212426
212563
212699
212826
212959
213095
213235
213367
213508
213652
213796
213936
214083
214231
214368
214510
214652
214793
214929
215072
215223
215377
215524
215675
215824
215975
216119
216267
216417
216559
216701
216849
216994
217133
217274
217412
217544
217678
217807
217939
218075
218204
218342
218483
218623
218755
218893
219029
219166
219303
219451
219604
219757
219909
220054
220204
220357
220509
220650
220797
220938
221079
221222
221356
221486
221616
221738
221863
221998
222135
222287
222444
222591
222742
222894
223039
223189
223340
223479
223610
223738
223860
223976
224084
224192
224297
224399
224498
224597
224694
224791
224889
224986
225084
225185
225288
225393
225503
225621
225737
225850
225966
226079
226191
226311
226431
226563
226698
226830
226974
227115
227247
227386
227519
227653
227794
227929
228071
228205
228342
228479
228611
228750
228895
229033
229177
229320
229458
229601
229738
229880
230030
230171
230308
230453
230599
230741
230888
231034
231177
231320
231470
231617
231759
231908
232067
232216
232370
232514
232659
232806
232944
233091
233237
233376
233525
233671
233813
233958
234093
234233
234375
234512
234649
234793
234940
235083
235236
235384
235524
235672
235812
235952
236092
236222
236357
236497
236631
236762
236886
237008
237128
237246
237366
237482
237601
237723
237856
237991
238140
238298
238452
238603
238756
238911
239052
239182
239317
239462
239618
239754
239886
240014
240145
240276
240410
240545
240679
240814
240944
241078
241224
241378
241531
241679
241832
241982
242125
242270
242419
242566
242706
242853
243006
243156
243299
243444
243585
243728
243877
244026
244171
244317
244461
244602
244735
244873
245010
245143
245280
245429
245579
245720
245864
246007
246148
246285
246424
246560
246695
246834
246976
247112
247254
247398
247546
247694
247842
247991
248136
248277
248420
248566
248709
248850
249001
249147
249283
249419
249559
249693
249827
249964
250100
250235
250373
250508
250639
250773
250906
251042
251180
251322
251461
251605
251751
251899
252039
252182
252320
252461
252616
252759
252909
253053
253194
253336
253467
253606
253750
253892
254030
254165
254301
254429
254559
254695
254826
254965
255106
255241
255373
255507
255641
255770
255901
256039
256173
256300
256435
256575
256716
256850
256992
257135
257275
257408
257546
257679
257809
257942
258069
258193
258316
258442
258571
258701
258825
258952
259079
259198
259324
259451
259576
259705
259833
259963
260095
260229
260354
260484
260612
260732
260856
260981
261108
261230
261359
261491
261626
261755
261888
262022
262146
262277
262414
262546
262679
262810
262936
263064
263195
263326
263455
263587
263723
263863
263999
264141
264287
264434
264574
264716
264860
265002
265140
265283
265428
265568
265707
265835
265966
266102
266238
266379
266523
266669
266810
266954
267095
267232
267369
267509
267645
267790
267937
268079
268219
268361
268502
268641
268781
268927
269074
269217
269359
269504
269651
269791
269935
270083
270228
270369
270513
270665
270813
270953
271092
271225
271353
271479
271609
271742
271870
271998
272128
272256
272383
272516
272650
272782
272920
273065
273208
273347
273494
273643
273784
273921
274066
274215
274367
274511
274659
274811
274961
275107
275249
275396
275543
275684
275824
275971
276122
276264
276407
276554
276700
276843
276991
277141
277284
277425
277570
277716
277861
278001
278143
278287
278429
278565
278710
278858
278999
279142
279288
279435
279576
279720
279865
280010
280151
280297
280447
280595
280738
280876
281020
281170
281309
281448
281587
281723
281853
281980
282111
282246
282385
282521
282658
282798
282938
283076
283210
283347
283477
283611
283748
283882
284020
284162
284301
284435
284573
284714
284851
284987
285127
285265
285395
285527
285665
285809
285945
286083
286226
286369
286507
286641
286780
286921
287064
287201
287342
287485
287623
287755
287888
288024
288150
288280
288410
288540
288662
288785
288910
289035
289162
289292
289424
289555
289697
289845
289989
290125
290259
290393
290522
290651
290777
290902
291026
291155
291287
291421
291554
291689
291827
291967
292103
292247
292396
292544
292684
292818
292946
293080
293209
293340
293465
293595
293716
293830
293950
294071
294202
294336
294470
294603
294734
294871
295010
295146
295278
295407
295535
295661
295791
295922
296056
296191
296319
296447
296578
296703
296831
296956
297084
297205
297327
297454
297580
297715
297851
297987
298118
298246
298376
298503
298637
298780
298923
299068
299211
299354
299499
299648
299802
299955
300098
300245
300396
300547
300696
300838
300979
301132
301285
301433
301578
301730
301877
302017
302161
302304
302441
302584
302725
302865
303001
303148
303301
303452
303598
303744
303891
304036
304180
304319
304466
304615
304760
304902
305045
305191
305331
305472
305616
305757
305890
306021
306149
306281
306417
306556
306691
306827
306963
307091
307224
307361
307503
307641
307782
307922
308067
308202
308339
308479
308625
308760
308900
309043
309179
309318
309452
309588
309727
309865
310000
310142
310282
310419
310551
310684
310819
310955
311090
311221
311354
311490
311623
311759
311897
312035
312174
312307
312444
312583
312720
312854
312993
313137
313277
313409
313543
313677
313810
313943
314080
314224
314360
314502
314640
314779
314922
315066
315200
315335
315465
315584
315702
315813
315922
316027
316130
316230
316329
316425
316519
316611
316701
316787
316872
316957
317041
317125
317212
317309
317427
317540
317656
317776
317905
318033
318166
318297
318430
318565
318698
318834
318970
319101
319238
319374
319521
319671
319818
319961
320105
320251
320394
320530
320676
320829
320973
321122
321274
321418
321563
321713
321857
322001
322151
322303
322448
322603
322759
322908
323061
323219
323369
323518
323668
323808
323942
324077
324207
324339
324475
324605
324736
324865
324991
325116
325235
325351
325476
325611
325752
325894
326026
326166
326308
326449
326581
326716
326853
326990
327118
327251
327384
327516
327647
327780
327905
328039
328174
328312
328454
328601
328750
328889
329032
329178
329315
329460
329613
329755
329900
330045
330180
330320
330463
330605
330747
330898
331049
331197
331339
331484
331633
331774
331921
332079
332231
332379
332528
332673
332813
332962
333113
333254
333405
333556
333699
333845
334000
334154
334296
334443
334589
334725
334858
334999
335139
335276
335425
335576
335719
335864
336010
336151
336288
336435
336588
336733
336879
337020
337156
337291
337428
337585
337735
337878
338025
338172
338309
338449
338597
338740
338882
339030
339181
339322
339464
339611
339753
339891
340033
340181
340322
340466
340610
340753
340889
341028
341170
341302
341433
341568
341705
341834
341974
342116
342253
342384
342518
342649
342777
342902
343024
343154
343286
343421
343561
343696
343825
343954
344084
344214
344354
344494
344632
344769
344907
345040
345176
345313
345443
345573
345709
345851
345990
346122
346258
346393
346521
346655
346792
346921
347053
347188
347322
347456
347593
347733
347874
348011
348155
348298
348440
348576
348711
348850
348989
349130
349269
349407
349539
349671
349803
349938
350071
350210
350352
350489
350626
350763
350902
351037
351168
351303
351444
351582
351717
351855
351995
352136
352272
352410
352547
352684
352821
352952
353087
353228
353366
353496
353627
353760
353886
354013
354140
354271
354402
354529
354657
354785
354913
355037
355163
355296
355431
355561
355696
355830
355957
356088
356220
356350
356479
356610
356744
356877
357008
357143
357278
357407
357537
357669
357804
357936
358071
358208
358340
358471
358607
358744
358879
359017
359157
359295
359428
359563
359699
359831
359964
360101
360242
360376
360512
360649
360784
360917
361051
361183
361310
361441
361579
361717
361853
361980
362103
362225
362358
362486
362609
362737
362867
363001
363132
363261
363395
363532
363669
363803
363937
364076
364213
364348
364490
364634
364771
364909
365050
365192
365331
365469
365608
365749
365889
366023
366159
366294
366424
366559
366696
366838
366971
367106
367243
367380
367513
367647
367785
367925
368061
368202
368342
368481
368615
368753
368896
369038
369173
369312
369448
369581
369714
369849
369986
370117
370253
370393
370532
370669
370811
370950
371089
371222
371353
371480
371608
371740
371873
372000
372126
372258
372393
372528
372659
372796
372935
373072
373210
373350
373495
373635
373773
373910
374049
374185
374318
374451
374588
374727
374857
374992
375135
375279
375423
375561
375699
375836
375976
376109
376245
376388
376533
376680
376816
376956
377098
377238
377369
377499
377636
377783
377924
378063
378209
378354
378490
378623
378752
378880
379006
379138
379273
379412
379549
379691
379834
379967
380102
380244
380392
380531
380670
380813
380956
381097
381239
381383
381521
381659
381798
381932
382060
382186
382319
382459
382595
382728
382865
383001
383136
383265
383396
383526
383659
383790
383924
384059
384194
384323
384452
384584
384718
384847
384976
385109
385243
385374
385510
385650
385788
385926
386066
386207
386340
386476
386616
386754
386891
387029
387166
387297
387426
387553
387687
387824
387959
388090
388221
388354
388486
388615
388750
388891
389033
389165
389306
389449
389587
389721
389854
389987
390123
390255
390389
390526
390668
390804
390940
391076
391211
391338
391467
391602
391738
391869
392003
392141
392281
392415
392548
392685
392825
392967
393095
393216
393340
393469
393604
393739
393871
394006
394144
394280
394408
394532
394652
394773
394892
395012
395133
395254
395380
395508
395635
395758
395886
396019
396152
396290
396435
396577
396714
396852
396990
397130
397271
397404
397541
397683
397828
397967
398100
398234
398372
398515
398651
398786
398925
399065
399203
399336
399471
399603
399730
399861
399997
400134
400264
400397
400529
400661
400794
400922
401052
401186
401324
401456
401589
401722
401856
401986
402120
402259
402395
402528
402660
402795
402929
403059
403191
403328
403465
403600
403734
403864
403990
404118
404247
404376
404505
404636
404768
404898
405031
405165
405295
405422
405546
405669
405797
405922
406049
406179
406312
406441
406571
406701
406832
406962
407094
407229
407370
407506
407643
407778
407909
408036
408167
408300
408431
408572
408716
408849
408981
409115
409250
409380
409513
409648
409780
409912
410045
410176
410304
410437
410571
410703
410832
410963
411099
411229
411360
411488
411610
411732
411853
411980
412105
412229
412355
412484
412610
412735
412864
412993
413119
413250
413384
413516
413650
413786
413920
414051
414182
414307
414429
414552
414676
414802
414936
415072
415203
415339
415478
415616
415748
415883
416022
416160
416295
416434
416575
416720
416859
416998
417142
417287
417426
417563
417698
417835
417971
418124
418272
418414
418561
418709
418855
418996
419139
419282
419432
419573
419715
419864
420014
420155
420301
420450
420592
420734
420878
421025
421165
421308
421450
421590
421724
421862
422007
422153
422290
422428
422565
422708
422851
422997
423138
423277
423415
423550
423685
423818
423951
424078
424204
424329
424454
424579
424705
424834
424958
425079
425201
425326
425451
425578
425712
425849
425987
426125
426255
426381
426506
426633
426763
426901
427042
427185
427330
427470
427609
427752
427898
428036
428179
428328
428472
428620
428774
428924
429070
429213
429363
429515
429660
429808
429963
430115
430262
430410
430556
430695
430840
430990
431143
431282
431416
431551
431679
431804
431928
432062
432192
432321
432456
432592
432723
432855
432986
433114
433247
433384
433519
433658
433801
433945
434084
434221
434360
434500
434630
434758
434890
435030
435159
435284
435405
435525
435644
435762
435875
435987
436103
436219
436338
436460
436584
436706
436828
436953
437088
437231
437372
437518
437665
437807
437939
438072
438200
438334
438477
438621
438753
438886
439022
439150
439276
439405
439534
439663
439795
439928
440055
440180
440310
440442
440574
440711
440854
440995
441132
441273
441416
441554
441691
441833
441986
442136
442284
442426
442572
442716
442861
443014
443170
443322
443468
443615
443764
443919
444066
444217
444371
444525
444671
444824
444977
445123
445268
445417
445571
445712
445854
445996
446133
446273
446416
446555
446686
446814
446936
447059
447185
447308
447438
447571
447697
447824
447955
448088
448214
448339
448460
448581
448700
448818
448941
449070
449206
449338
449470
449607
449747
449888
450029
450169
450312
450456
450602
450744
450882
451023
451170
451313
451448
451583
451718
451862
452002
452143
452285
452429
452567
452701
452837
452976
453115
453253
453393
453537
453676
453815
453951
454088
454223
454363
454505
454637
454769
454899
455031
455158
455290
455428
455555
455678
455797
455919
456043
456172
456295
456420
456545
456665
456789
456916
457047
457176
457307
457442
457579
457715
457847
457978
458113
458251
458389
458518
458649
458784
458919
459051
459187
459324
459452
459584
459718
459843
459976
460110
460241
460375
460516
460657
460791
460927
461063
461186
461307
461438
461570
461697
461822
461953
462084
462207
462333
462461
462591
462722
462847
462974
463102
463231
463359
463484
463611
463740
463866
463992
464122
464257
464392
464521
464653
464787
464922
465054
465188
465325
465466
465601
465734
465868
466003
466132
466268
466404
466544
466677
466813
466948
467082
467214
467350
467488
467620
467747
467878
468014
468149
468286
468425
468563
468691
468815
468936
469063
469197
469328
469461
469601
469742
469879
470014
470146
470280
470407
470536
470673
470815
470951
471086
471222
471358
471487
471614
471743
471872
472005
472135
472271
472408
472540
472670
472800
472929
473057
473195
473336
473474
473612
473749
473882
474011
474147
474285
474417
474553
474691
474819
474948
475077
475209
475340
475472
475607
475744
475874
476009
476147
476281
476414
476545
476673
476803
476935
477069
477199
477333
477470
477608
477737
477873
478008
478143
478274
478413
478550
478687
478822
478959
479093
479215
479333
479449
479573
479697
479821
479950
480084
480212
480333
480449
480566
480692
480821
480948
481070
481195
481322
481448
481573
481696
481823
481954
482083
482211
482343
482477
482610
482736
482861
482986
483109
483232
483353
483476
483597
483719
483842
483973
484103
484230
484358
484486
484608
484730
484855
484983
485108
485232
485361
485494
485629
485760
485895
486031
486164
486295
486420
486547
486672
486801
486934
487065
487192
487317
487440
487566
487693
487825
487965
488102
488233
488365
488498
488624
488757
488896
489037
489174
489309
489444
489575
489705
489840
489975
490105
490238
490370
490506
490635
490763
490890
491019
491154
491285
491420
491557
491698
491827
491956
492087
492221
492354
492483
492616
492756
492895
493024
493152
493278
493407
493536
493663
493795
493933
494068
494200
494330
494461
494590
494715
494844
494972
495103
495228
495351
495473
495597
495717
495841
495969
496098
496220
496342
496463
496585
496709
496832
496958
497088
497221
497354
497485
497617
497749
497874
497999
498126
498256
498384
498516
498650
498781
498913
499045
499175
499298
499425
499555
499689
499813
499938
500059
500179
500300
500421
500544
500668
500790
500909
501035
501165
501291
501419
501547
501677
501801
501922
502042
502167
502295
502427
502554
502684
502818
502945
503073
503203
503340
503481
503617
503754
503891
504026
504159
504281
504402
504522
504643
504767
504903
505049
505189
505328
505470
505608
505741
505870
506000
506125
506246
506367
506495
506624
506749
506880
507017
507152
507282
507413
507542
507668
507790
507914
508043
508165
508289
508416
508540
508664
508793
508918
509040
509169
509302
509432
509559
509688
509814
509935
510059
510187
510318
510445
510576
510702
510827
510955
511086
511218
511345
511474
511605
511737
511862
511990
512122
512252
512386
512522
512655
512783
512908
513031
513149
513265
513383
513503
513624
513744
513868
513998
514124
514246
514367
514489
514615
514738
514865
514997
515133
515262
515392
515525
515658
515787
515916
516043
516171
516293
516415
516531
516640
516752
516870
516998
517125
517246
517364
517480
517592
517713
517827
517936
518051
518164
518285
518408
518535
518664
518793
518917
519041
519166
519293
519423
519557
519690
519821
519951
520084
520217
520343
520474
520606
520739
520868
521001
521140
521280
521420
521554
521690
521826
521953
522076
522201
522327
522458
522591
522719
522847
522972
523099
523229
523361
523486
523613
523740
523869
524000
524128
524259
524395
524526
524652
524776
524906
525037
525164
525295
525427
525561
525689
525817
525948
526081
526214
526341
526470
526600
526730
526855
526982
527110
527236
527362
527491
527622
527747
527869
527993
528111
528226
528341
528458
528575
528691
528806
528924
529039
529158
529281
529408
529542
529667
529792
529917
530044
530170
530291
530415
530543
530674
530800
530925
531049
531171
531295
531423
531554
531680
531810
531942
532070
532194
532321
532450
532580
532707
532832
532959
533089
533225
533355
533486
533619
533746
533871
534000
534131
534258
534388
534522
534654
534780
534906
535035
535165
535288
535414
535544
535668
535789
535903
536013
536119
536220
536324
536429
536537
536641
536748
536854
536958
537060
537161
537263
537368
537473
537584
537696
537813
537935
538058
538186
538313
538437
538560
538682
538806
538928
539050
539174
539302
539432
539556
539681
539807
539930
540056
540185
540315
540435
540558
540684
540806
540928
541055
541182
541312
541453
541598
541735
541872
542008
542140
542270
542394
542521
542648
542774
542901
543027
543155
543283
543414
543551
543682
543816
543953
544088
544225
544368
544511
544650
544785
544916
545050
545186
545322
545456
545587
545715
545845
545974
546106
546240
546373
546506
546638
546777
546918
547050
547185
547323
547462
547595
547731
547874
548021
548161
548303
548445
548590
548728
548871
549016
549158
549293
549430
549566
549697
549829
549963
550101
550238
550373
550513
550656
550788
550919
551054
551193
551327
551464
551601
551736
551874
552014
552147
552280
552418
552547
552676
552816
552956
553095
553232
553369
553507
553640
553770
553904
554045
554187
554326
554464
554605
554749
554884
555017
555151
555284
555411
555542
555675
555805
555930
556056
556184
556311
556443
556577
556706
556840
556977
557113
557246
557382
557521
557658
557793
557933
558079
558222
558359
558500
558644
558786
558921
559057
559197
559336
559472
559610
559752
559888
560024
560161
560299
560430
560568
560710
560850
560984
561120
561254
561382
561513
561644
561778
561917
562055
562187
562324
562461
562596
562725
562856
562987
563116
563254
563391
563525
563663
563802
563934
564069
564206
564342
564472
564605
564738
564866
564997
565133
565273
565409
565546
565684
565821
565953
566089
566228
566361
566496
566629
566755
566882
567008
567132
567253
567371
567492
567618
567744
567866
567990
568118
568247
568372
568500
568631
568761
568888
569017
569150
569279
569404
569531
569663
569796
569932
570071
570211
570343
570477
570614
570743
570877
571013
571150
571282
571416
571550
571678
571808
571940
572070
572195
572323
572456
572584
572715
572849
572984
573114
573244
573375
573502
573631
573762
573892
574016
574143
574271
574400
574529
574665
574801
574933
575065
575195
575323
575450
575576
575700
575819
575943
576073
576204
576328
576458
576591
576720
576858
577000
577138
577275
577414
577546
577681
577818
577958
578088
578219
578348
578469
578599
578736
578869
579009
579150
579280
579411
579543
579672
579792
579909
580024
580146
580272
580394
580519
580645
580766
580889
581014
581139
581262
581385
581506
581636
581766
581895
582028
582161
582291
582423
582547
582670
582795
582922
583048
583178
583308
583441
583571
583691
583810
583929
584044
584156
584266
584378
584503
584633
584767
584900
585030
585158
585284
585400
585513
585623
585729
585833
585936
586035
586134
586235
586336
586441
586555
586674
586796
586921
587043
587167
587295
587429
587564
587697
587825
587958
588090
588215
588342
588474
588604
588731
588866
589007
589148
589284
589413
589543
589678
589820
589955
590099
590244
590383
590518
590649
590780
590912
591040
591171
591301
591429
591553
591674
591801
591923
592049
592179
592304
592433
592569
592709
592847
592985
593125
593258
593395
593528
593660
593790
593924
594060
594199
594332
594462
594595
594736
594865
595000
595140
595282
595417
595546
595679
595811
595945
596082
596218
596349
596479
596615
596758
596898
597038
597182
597319
597454
597594
597743
597878
598017
598158
598299
598437
598573
598700
598829
598950
599080
599216
599360
599505
599651
599788
599919
600052
600185
600315
600442
600561
600680
600798
600918
601037
601159
601286
601412
601530
601650
601771
601897
602023
602151
602282
602413
602549
602687
602823
602956
603085
603204
603313
603420
603522
603621
603721
603820
603917
604017
604117
604217
604319
604417
604515
604615
604715
604816
604917
605013
605112
605211
605307
605407
605507
605607
605712
605813
605915
606019
606120
606224
606324
606427
606531
606628
606728
606827
606930
607031
607133
607232
607332
607429
607525
607620
607717
607809
607899
607989
608076
608165
608253
608344
608440
608536
608632
608728
608824
608921
609021
609123
609226
609326
609423
609518
609610
609704
609796
609887
609979
610068
610155
610241
610333
610425
610520
610620
610717
610821
610929
611040
611152
611263
611372
611475
611579
611678
611784
611892
612007
612121
612230
612341
612454
612571
612689
612805
612923
613043
613161
613280
613399
613521
613646
613764
613882
613998
614110
614223
614338
614455
614568
614687
614807
614921
615035
615149
615259
615370
615482
615596
615708
615821
615929
616037
616139
616240
616342
616444
616545
616646
616747
616850
616948
617052
617159
617267
617379
617492
617607
617719
617835
617953
618072
618190
618302
618416
618529
618640
618747
618858
618968
619077
619188
619304
619422
619541
619657
619772
619885
619999
620116
620231
620345
620463
620580
620692
620805
620913
621027
621139
621252
621369
621483
621599
621716
621837
621960
622078
622198
622319
622443
622562
622686
622815
622944
623068
623189
623314
623444
623577
623705
623831
623959
624087
624207
624333
624463
624591
624719
624851
624982
625106
625232
625359
625482
625611
625750
625889
626029
626167
626303
626434
626565
626694
626829
626968
627109
627248
627385
627520
627654
627791
627926
628056
628187
628316
628456
628589
628721
628859
628992
629127
629267
629404
629545
629684
629825
629958
630095
630232
630367
630505
630641
630773
630901
631037
631181
631323
631461
631612
631759
631904
632044
632186
632321
632455
632593
632736
632890
633037
633186
633327
633477
633628
633772
633919
634066
634211
634350
634486
634616
634744
634873
635005
635150
635291
635431
635575
635709
635843
635982
636115
636257
636406
636545
636688
636831
636966
637102
637237
637371
637504
637643
637794
637935
638080
638223
638366
638512
638657
638798
638945
639093
639233
639377
639516
639650
639788
639924
640066
640218
640362
640507
640650
640793
640933
641070
641212
641353
641491
641637
641766
641894
642020
642140
642261
642391
642518
642643
642794
642942
643087
643232
643376
643517
643659
643801
643936
644080
644228
644362
644499
644634
644763
644885
645008
645131
645256
645385
645508
645634
645758
645881
646005
646126
646247
646371
646498
646620
646738
646852
646964
647072
647184
647304
647435
647575
647718
647860
648002
648142
648283
648423
648564
648703
648840
648970
649101
649233
649367
649501
649638
649769
649901
650038
650179
650323
650464
650591
650709
650822
650931
651043
651161
651279
651399
651527
651659
651790
651921
652051
652166
652283
652398
652530
652672
652811
652947
653081
653218
653359
653506
653651
653800
653942
654081
654220
654360
654500
654639
654777
654916
655047
655182
655319
655458
655601
655734
655870
656004
656128
656252
656372
656493
656619
656747
656873
657006
657147
657282
657418
657552
657677
657804
657936
658072
658213
658355
658496
658633
658774
658922
659073
659222
659367
659513
659661
659805
659950
660091
660229
660367
660507
660647
660787
660929
661076
661222
661374
661522
661669
661813
661954
662099
662248
662396
662533
662667
662799
662932
663069
663206
663335
663459
663574
663688
663798
663910
664022
664139
664251
664366
664483
664607
664738
664872
665000
665136
665272
665409
665547
665681
665818
665955
666084
666211
666328
666440
666549
666653
666755
666854
666954
667052
667153
667257
667367
667477
667584
667690
667798
667921
668054
668189
668329
668475
668616
668742
668869
668982
669092
669202
669309
669415
669518
669618
669718
669820
669921
670022
670123
670228
670335
670440
670546
670656
670765
670879
670994
671107
671224
671342
671456
671566
671675
671785
671895
672008
672124
672235
672347
672460
672571
672676
672782
672886
672994
673104
673215
673333
673452
673571
673687
673811
673939
674070
674205
674341
674475
674611
674751
674886
675013
675141
675268
675399
675530
675661
675785
675912
676039
676166
676293
676418
676541
676669
676799
676939
677074
677199
677335
677471
677612
677747
677875
678001
678128
678256
678391
678526
678661
678791
678916
679046
679169
679299
679435
679579
679713
679848
679985
680117
680265
680399
680529
680654
680779
680906
681034
681163
681293
681426
681574
681724
681872
682016
682162
682303
682448
682592
682732
682874
683013
683154
683294
683434
683571
683707
683828
683949
684071
684197
684324
684446
684572
684703
684828
684954
685080
685206
685325
685445
685561
685681
685802
685927
686060
686201
686349
686487
686621
686751
686877
687011
687160
687314
687469
687614
687762
687910
688051
688189
688325
688475
688615
688765
688918
689065
689206
689346
689491
689628
689764
689902
690038
690169
690302
690435
690563
690691
690830
690971
691116
691255
691394
691528
691672
691819
691967
692117
692278
692428
692575
692716
692857
693005
693143
693284
693439
693584
693729
693869
694010
694156
694302
694450
694602
694758
694912
695066
695215
695361
695505
695653
695802
695951
696096
696240
696386
696526
696680
696832
696972
697114
697263
697406
697545
697682
697828
697973
698111
698250
698395
698533
698675
698813
698957
699096
699237
699382
699527
699668
699808
699930
700048
700160
700268
700373
700483
700592
700696
700798
700896
700990
701089
701184
701280
701382
701487
701596
701707
701823
701944
702065
702189
702315
702444
702571
702694
702814
702934
703054
703172
703301
703442
703577
703709
703833
703953
704065
704177
704292
704407
704525
704648
704772
704896
705020
705146
705270
705397
705526
705648
705783
705915
706039
706162
706280
706393
706503
706609
706713
706818
706920
707019
707121
707225
707329
707433
707537
707645
707753
707863
707965
708065
708166
708266
708364
708465
708570
708675
708780
708892
708999
709110
709217
709324
709434
709542
709650
709756
709860
709962
710063
710165
710263
710362
710460
710560
710662
710767
710877
710985
711094
711204
711314
711422
711532
711644
711756
711871
711986
712098
712208
712320
712430
712541
712650
712762
712874
712987
713100
713213
713324
713431
713536
713640
713743
713846
713951
714051
714150
714254
714360
714465
714572
714681
714790
714893
714998
715104
715216
715331
715455
715586
715707
715829
715953
716078
716198
716308
716418
716528
716637
716749
716863
716978
717095
717211
717336
717466
717597
717732
717863
717992
718123
718250
718372
718493
718610
718725
718837
718950
719066
719193
719315
719444
719571
719697
719818
719932
720047
720157
720273
720390
720513
720640
720763
720882
721003
721122
721242
721359
721475
721587
721707
721829
721951
722065
722188
722308
722426
722540
722654
722770
722888
723007
723128
723249
723373
723498
723622
723749
723880
724004
724135
724267
724397
724530
724657
724789
724924
725059
725192
725319
725449
725575
725695
725807
725916
726027
726141
726256
726368
726484
726599
726722
726849
726976
727107
727236
727366
727495
727627
727756
727893
728021
728142
728266
728385
728511
728633
728760
728884
729006
729125
729244
729366
729488
729609
729734
729859
729982
730100
730216
730326
730436
730545
730652
730759
730865
730971
731079
731193
731306
731426
731554
731675
731799
731919
732037
732151
732265
732384
732504
732617
732731
732847
732967
733085
733198
733313
733431
733547
733667
733787
733908
734028
734151
734273
734393
734513
734636
734758
734883
735007
735127
735248
735367
735484
735606
735737
735868
736006
736142
736279
736414
736545
736671
736804
736932
737061
737187
737314
737438
737562
737690
737817
737941
738060
738178
738300
738421
738538
738658
738783
738909
739031
739150
739268
739382
739495
739608
739724
739843
739961
740081
740202
740318
740438
740569
740698
740832
740963
741093
741222
741344
741467
741589
741711
741832
741948
742061
742172
742290
742405
742515
742630
742746
742865
742984
743101
743219
743336
743451
743565
743673
743783
743895
744008
744123
744238
744353
744468
744582
744697
744807
744921
745036
745146
745257
745368
745479
745587
745696
745804
745914
746025
746132
746239
746346
746448
746549
746648
746748
746846
746946
747042
747139
747236
747333
747428
747523
747614
747702
747788
747873
747961
748043
748125
748204
748286
748365
748443
748520
748598
748676
748753
748832
748911
748989
749068
749149
749230
749312
749392
749472
749551
749634
749714
749794
749878
749960
750042
750124
750207
750289
750370
750449
750534
750621
750706
750793
750881
750969
751056
751146
751233
751320
751407
751496
751584
751670
751758
751845
751932
752019
752106
752191
752280
752368
752458
752547
752638
752728
752816
752905
752995
753081
753170
753259
753345
753432
753520
753606
753694
753784
753873
753966
754062
754158
754258
754365
754468
754571
754673
754776
754883
754995
755107
755224
755339
755451
755565
755677
755787
755899
756008
756117
756227
756336
756450
756571
756697
756815
756938
757054
757172
757288
757411
757532
757662
757791
757914
758040
758164
758280
758397
758503
758603
758705
758802
758901
759003
759114
759223
759331
759443
759557
759675
759801
759935
760062
760191
760323
760463
760600
760743
760886
761034
761175
761320
761462
761593
761729
761862
761995
762134
762272
762413
762558
762698
762833
762967
763100
763237
763377
763516
763643
763770
763896
764019
764137
764255
764376
764500
764625
764757
764888
765026
765169
765301
765430
765560
765692
765823
765951
766072
766198
766331
766456
766582
766710
766841
766964
767092
767221
767339
767466
767597
767728
767853
767978
768102
768232
768363
768490
768622
768753
768879
769002
769130
769263
769387
769512
769641
769773
769907
770047
770176
770309
770445
770582
770711
770848
770985
771119
771251
771382
771507
771631
771759
771891
772019
772147
772277
772406
772533
772662
772796
772927
773059
773191
773315
773441
773566
773698
773833
773973
774106
774241
774379
774512
774638
774762
774884
775014
775153
775282
775413
775549
775675
775804
775941
776069
776199
776338
776470
776601
776740
776879
777018
777152
777285
777416
777552
777681
777810
777940
778058
778180
778301
778421
778541
778665
778786
778908
779029
779154
779278
779404
779526
779643
779761
779875
779991
780108
780219
780333
780446
780555
780668
780785
780897
781005
781106
781201
781293
781383
781472
781559
781650
781743
781843
781950
782063
782182
782298
782409
782521
782634
782746
782863
782991
783113
783241
783374
783501
783633
783762
783896
784035
784173
784301
784427
784559
784703
784838
784971
785104
785240
785375
785509
785642
785775
785910
786044
786177
786305
786433
786563
786686
786809
786936
787071
787208
787341
787478
787614
787748
787885
788020
788148
788285
788412
788538
788676
788815
788957
789091
789222
789353
789490
789633
789776
789915
790047
790182
790315
790444
790573
790704
790835
790960
791085
791215
791349
791475
791601
791730
791871
792010
792142
792269
792398
792535
792666
792802
792938
793074
793204
793326
793447
793574
793707
793843
793972
794103
794234
794369
794497
794631
794769
794906
795041
795178
795319
795454
795585
795711
795837
795967
796098
796232
796364
796496
796628
796760
796889
797013
797137
797263
797396
797519
797638
797751
797865
797977
798090
798201
798315
798428
798541
798651
798765
798882
799005
799132
799256
799383
799504
799625
799748
799867
799987
800115
800248
800376
800504
800632
800762
800890
801014
801144
801274
801400
801526
801656
801783
801904
802022
802139
802261
802386
802511
802633
802755
802879
803000
803122
803244
803368
803488
803607
803723
803840
803956
804073
804188
804307
804427
804546
804663
804782
804901
805021
805142
805261
805382
805503
805623
805743
805862
805980
806096
806212
806325
806440
806553
806671
806793
806917
807039
807158
807276
807387
807496
807608
807713
807823
807931
808044
808167
808283
808405
808534
808660
808781
808907
809026
809147
809274
809395
809516
809642
809767
809892
810017
810139
810257
810369
810479
810588
810697
810805
810912
811021
811126
811235
811345
811455
811567
811676
811783
811890
811996
812104
812216
812333
812462
812597
812732
812856
812980
813100
813222
813347
813476
813606
813736
813865
813989
814111
814233
814358
814492
814632
814761
814892
815022
815145
815265
815384
815502
815618
815742
815864
815984
816099
816209
816318
816423
816528
816633
816737
816845
816956
817072
817186
817307
817429
817552
817681
817810
817938
818067
818187
818314
818440
818573
818710
818846
818980
819109
819239
819369
819498
819625
819750
819873
819989
820105
820223
820344
820476
820608
820732
820860
820991
821122
821246
821369
821491
821611
821739
821872
822017
822158
822291
822426
822564
822698
822827
822959
823090
823219
823354
823482
823610
823743
823869
823993
824120
824247
824374
824502
824632
824761
824892
825022
825150
825275
825402
825523
825645
825766
825883
826001
826118
826239
826362
826487
826610
826732
826853
826975
827095
827213
827335
827456
827576
827705
827839
827968
828094
828218
828344
828464
828588
828717
828844
828972
829099
829224
829345
829465
829584
829706
829832
829955
830086
830217
830339
830462
830587
830711
830831
830951
831075
831205
831333
831460
831588
831713
831837
831963
832088
832213
832335
832458
832580
832701
832821
832939
833056
833172
833285
833394
833498
833597
833693
833789
833886
833982
834083
834189
834301
834411
834522
834639
834755
834869
834986
835097
835205
835317
835430
835549
835663
835775
835888
835996
836107
836215
836328
836443
836558
836681
836807
836931
837058
837190
837318
837444
837574
837703
837826
837945
838069
838192
838317
838445
838576
838702
838824
838939
839053
839168
839286
839408
839538
839666
839790
839915
840038
840157
840280
840405
840534
840659
840785
840915
841047
841172
841294
841418
841549
841680
841803
841926
842050
842175
842299
842428
842552
842678
842804
842925
843043
843162
843283
843405
843526
843647
843764
843883
844006
844132
844258
844380
844504
844631
844750
844867
844985
845106
845229
845349
845473
845601
845729
845852
845982
846109
846236
846363
846488
846614
846743
846877
847005
847139
847274
847405
847534
847663
847788
847911
848035
848155
848278
848400
848522
848642
848759
848874
848987
849095
849202
849312
849418
849528
849637
849751
849871
849989
850109
850235
850362
850487
850615
850744
850869
850988
851111
851233
851355
851480
851603
851727
851848
851970
852094
852220
852344
852467
852594
852718
852842
852967
853095
853222
853345
853471
853598
853723
853847
853974
854101
854224
854346
854468
854591
854718
854842
854968
855095
855220
855347
855470
855589
855709
855834
855957
856075
856193
856312
856426
856539
856652
856766
856882
856999
857116
857234
857352
857473
857598
857721
857843
857965
858088
858207
858324
858440
858559
858677
858799
858920
859041
859160
859278
859391
859506
859622
859735
859853
859969
860084
860202
860327
860458
860585
860712
860837
860969
861105
861235
861369
861502
861629
861759
861888
862015
862142
862262
862385
862508
862631
862750
862867
862984
863101
863218
863335
863454
863577
863696
863816
863939
864062
864180
864298
864417
864535
864655
864774
864890
865007
865122
865239
865361
865488
865614
865747
865881
866012
866143
866264
866383
866503
866624
866742
866864
866984
867106
867228
867358
867492
867620
867748
867876
868004
868126
868248
868369
868488
868603
868717
868829
868939
869048
869154
869260
869363
869465
869565
869668
869770
869874
869977
870085
870191
870302
870411
870521
870631
870747
870862
870984
871112
871234
871354
871479
871601
871717
871834
871947
872057
872165
872267
872366
872462
872558
872651
872741
872833
872925
873015
873104
873194
873286
873377
873467
873559
873653
873752
873851
873958
874067
874174
874283
874397
874512
874628
874739
874851
874959
875066
875174
875279
875387
875494
875599
875708
875818
875926
876030
876136
876241
876343
876444
876542
876641
876737
876829
876936
877042
877145
877252
877358
877463
877563
877666
877768
877872
877976
878082
878191
878298
878409
878517
878630
878734
878845
878955
879059
879172
879287
879405
879525
879642
879762
879885
880011
880139
880267
880389
880516
880640
880768
880900
881026
881159
881288
881414
881538
881665
881793
881924
882059
882186
882315
882441
882563
882687
882810
882936
883067
883205
883339
883476
883615
883754
883890
884025
884161
884298
884424
884544
884664
884778
884889
884994
885098
885203
885317
885440
885560
885686
885815
885941
886063
886192
886330
886467
886600
886731
886856
886977
887094
887215
887334
887460
887588
887723
887853
887989
888124
888260
888390
888528
888667
888803
888938
889068
889199
889327
889462
889599
889730
889870
890004
890134
890261
890391
890518
890649
890784
890920
891055
891195
891326
891468
891613
891756
891898
892031
892168
892304
892441
892573
892716
892856
892995
893128
893269
893413
893549
893689
893833
893972
894111
894255
894400
894540
894685
894834
894972
895107
895260
895411
895561
895700
895840
895985
896119
896246
896381
896519
896651
896784
896912
897036
897161
897291
897426
897561
897691
897824
897957
898094
898231
898366
898504
898636
898771
898908
899052
899190
899330
899471
899616
899752
899891
900035
900172
900311
900454
900599
900739
900883
901027
901162
901298
901435
901573
901712
901848
901983
902107
902230
902356
902487
902626
902761
902904
903044
903184
903324
903455
903584
903709
903838
903967
904097
904218
904340
904466
904597
904729
904858
904991
905124
905260
905400
905539
905675
905804
905937
906066
906195
906317
906438
906553
906672
906794
906924
907055
907186
907314
907446
907580
907716
907849
907987
908123
908258
908384
908510
908633
908751
908872
908996
909120
909248
909375
909502
909628
909761
909893
910023
910155
910283
910411
910541
910672
910811
910949
911079
911212
911343
911473
911597
911722
911848
911982
912110
912245
912389
912532
912674
912815
912956
913094
913228
913350
913491
913639
913788
913934
914078
914220
914366
914509
914653
914792
914928
915066
915207
915346
915485
915626
915765
915904
916042
916179
916313
916444
916580
916719
916861
917001
917135
917267
917395
917516
917633
917749
917867
917980
918096
918208
918320
918433
918551
918678
918805
918931
919057
919183
919309
919436
919566
919702
919840
919981
920118
920256
920389
920527
920670
920814
920957
921092
921225
921358
921490
921618
921745
921869
921999
922138
922273
922409
922544
922674
922804
922931
923064
923206
923347
923486
923625
923759
923894
924028
924159
924297
924438
924578
924719
924856
924990
925121
925251
925379
925509
925638
925769
925908
926042
926180
926315
926449
926576
926703
926832
926970
927110
927244
927381
927516
927646
927769
927887
928002
928109
928213
928316
928412
928507
928601
928693
928785
928877
928966
929055
929143
929231
929320
929410
929507
929620
929737
929868
930003
930133
930261
930381
930493
930599
930702
930803
930908
931031
931156
931291
931427
931565
931705
931844
931983
932124
932262
932395
932530
932667
932801
932936
933072
933204
933342
933480
933616
933747
933874
934000
934124
934254
934388
934520
934649
934775
934903
935034
935165
935297
935426
935556
935683
935814
935950
936086
936215
936345
936477
936606
936732
936859
936991
937125
937265
937405
937544
937676
937812
937950
938086
938224
938360
938496
938628
938760
938897
939034
939172
939307
939440
939564
939688
939811
939939
940066
940189
940308
940420
940531
940632
940735
940836
940946
941065
941185
941307
941433
941556
941675
941798
941923
942049
942175
942303
942424
942552
942682
942815
942950
943079
943200
943324
943449
943576
943698
943822
943939
944061
944180
944303
944421
944542
944664
944783
944899
945015
945131
945249
945364
945481
945598
945717
945846
945979
946110
946241
946363
946490
946618
946744
946870
946996
947115
947233
947348
947472
947601
947729
947860
947992
948117
948241
948366
948488
948613
948740
948868
948998
949123
949249
949375
949496
949619
949748
949882
950014
950147
950274
950399
950523
950649
950775
950897
951025
951158
951284
951418
951553
951684
951812
951940
952067
952198
952328
952457
952583
952701
952821
952940
953064
953194
953321
953446
953568
953687
953802
953918
953946
954024
954126
954227
954324
954415
954506
954594
954681
954768
954851
954932
955015
955100
955190
955282
955381
955484
955590
955702
955816
955925
956041
956155
956268
956378
956489
956603
956716
956839
956962
957089
957217
957346
957475
957598
957715
957825
957936
958047
958163
958285
958406
958532
958656
958776
958895
959014
959135
959255
959375
959496
959609
959727
959844
959970
960098
960226
960347
960468
960584
960699
960821
960940
961057
961185
961314
961443
961569
961696
961819
961936
962054
962167
962285
962405
962523
962640
962754
962866
962975
963084
963191
963301
963404
963510
963619
963727
963835
963939
964039
964138
964235
964337
964449
964566
964689
964814
964943
965073
965202
965325
965443
965561
965677
965789
965898
966012
966125
966243
966363
966478
966589
966705
966820
966937
967055
967170
967290
967410
967535
967661
967782
967907
968026
968151
968275
968403
968521
968645
968773
968901
969028
969158
969289
969412
969537
969667
969808
969948
970081
970211
970336
970461
970578
970691
970811
970933
971053
971164
971273
971381
971493
971610
971727
971848
971969
972092
972214
972328
972445
972559
972678
972795
972912
973036
973162
973294
973423
973548
973666
973782
973897
974014
974131
974252
974371
974498
974627
974758
974886
975013
975140
975268
975388
975511
975637
975759
975876
975992
976112
976235
976359
976480
976598
976719
976836
976950
977068
977187
977304
977419
977531
977641
977745
977849
977954
978058
978165
978274
978383
978492
978604
978713
978824
978935
979050
979165
979277
979394
979513
979632
979747
979856
979966
980075
980186
980295
980409
980525
980639
980752
980860
980969
981073
981179
981286
981399
981516
981629
981742
981863
981981
982106
982227
982352
982477
982593
982709
982822
982931
983038
983151
983267
983381
983489
983603
983723
983841
983964
984086
984208
984326
984436
984547
984652
984757
984863
984971
985076
985182
985291
985400
985511
985625
985743
985868
986007
986147
986283
986415
986541
986668
986796
986923
987044
987164
987283
987406
987530
987656
987776
987901
988025
988147
988273
988398
988522
988649
988784
988922
989058
989188
989318
989443
989567
989692
989816
989943
990073
990202
990329
990448
990571
990695
990811
990926
991040
991162
991291
991419
991548
991676
991795
991917
992041
992165
992288
992409
992527
992641
992761
992883
993003
993127
993252
993378
993503
993625
993746
993869
993993
994117
994243
994375
994498
994619
994734
994853
994974
995097
995223
995343
995462
995581
995703
995826
995948
996072
996187
996307
996429
996552
996673
996791
996902
997012
997116
997219
997323
997429
997540
997649
997759
997868
997976
998085
998198
998314
998432
998550
998673
998801
998932
999060
999186
999311
999434
999556
999677
999803
999932
1000062
1000192
1000320
1000442
1000562
1000680
1000800
1000920
1001039
1001159
1001277
1001397
1001516
1001638
1001762
1001889
1002019
1002143
1002269
1002395
1002520
1002643
1002766
1002893
1003021
1003148
1003278
1003407
1003531
1003656
1003779
1003904
1004028
1004145
1004263
1004383
1004499
1004614
1004730
1004845
1004963
1005084
1005200
1005322
1005446
1005575
1005697
1005821
1005943
1006058
1006174
1006288
1006400
1006511
1006620
1006735
1006855
1006976
1007094
1007215
1007332
1007448
1007560
1007677
1007793
1007909
1008025
1008143
1008257
1008374
1008487
1008602
1008716
1008826
1008937
1009051
1009164
1009277
1009391
1009501
1009615
1009730
1009846
1009963
1010081
1010200
1010315
1010431
1010551
1010673
1010792
1010912
1011032
1011152
1011271
1011383
1011496
1011612
1011722
1011832
1011944
1012059
1012177
1012295
1012413
1012525
1012639
1012754
1012872
1012989
1013101
1013215
1013322
1013437
1013545
1013652
1013756
1013861
1013965
1014068
1014176
1014278
1014380
1014482
1014582
1014683
1014782
1014884
1014990
1015099
1015205
1015316
1015424
1015534
1015646
1015760
1015876
1015990
1016100
1016209
1016315
1016422
1016532
1016639
1016750
1016864
1016982
1017098
1017213
1017331
1017443
1017558
1017674
1017791
1017906
1018022
1018139
1018255
1018370
1018479
1018585
1018688
1018790
1018892
1018995
1019097
1019203
1019310
1019418
1019530
1019644
1019758
1019871
1019991
1020121
1020253
1020384
1020515
1020642
1020765
1020885
1021001
1021114
1021226
1021342
1021462
1021580
1021698
1021822
1021947
1022069
1022187
1022303
1022416
1022535
1022655
1022773
1022890
1023012
1023133
1023256
1023375
1023490
1023609
1023729
1023850
1023972
1024090
1024206
1024322
1024442
1024558
1024678
1024798
1024918
1025039
1025159
1025272
1025388
1025504
1025626
1025745
1025868
1025989
1026108
1026227
1026343
1026455
1026566
1026680
1026798
1026920
1027042
1027167
1027291
1027407
1027525
1027642
1027758
1027874
1027986
1028104
1028225
1028351
1028476
1028599
1028724
1028847
1028966
1029088
1029210
1029333
1029454
1029570
1029690
1029810
1029926
1030042
1030161
1030276
1030399
1030525
1030651
1030768
1030888
1031006
1031121
1031234
1031346
1031460
1031568
1031675
1031782
1031892
1032000
1032109
1032216
1032329
1032447
1032571
1032689
1032810
1032930
1033050
1033169
1033287
1033402
1033518
1033634
1033750
1033863
1033973
1034083
1034196
1034311
1034422
1034538
1034655
1034769
1034883
1034999
1035115
1035231
1035349
1035468
1035582
1035699
1035815
1035926
1036039
1036150
1036259
1036369
1036479
1036592
1036709
1036825
1036943
1037065
1037187
1037311
1037427
1037543
1037660
1037776
1037890
1038006
1038120
1038231
1038347
1038462
1038573
1038687
1038798
1038905
1039009
1039116
1039220
1039324
1039427
1039541
1039667
1039797
1039925
1040049
1040176
1040301
1040425
1040546
1040667
1040789
1040906
1041026
1041145
1041262
1041382
1041502
1041623
1041738
1041852
1041972
1042094
1042218
1042342
1042458
1042578
1042694
1042812
1042932
1043049
1043167
1043283
1043403
1043524
1043646
1043765
1043884
1044005
1044121
1044236
1044347
1044460
1044571
1044685
1044802
1044920
1045044
1045167
1045291
1045407
1045524
1045641
1045758
1045869
1045983
1046097
1046213
1046327
1046444
1046563
1046679
1046799
1046918
1047036
1047154
1047271
1047381
1047490
1047593
1047692
1047798
1047911
1048025
1048139
1048254
1048367
1048478
1048594
1048709
1048824
1048938
1049046
1049155
1049268
1049381
1049500
1049621
1049742
1049862
1049976
1050091
1050207
1050325
1050445
1050567
1050690
1050811
1050932
1051051
1051168
1051283
1051399
1051515
1051628
1051745
1051864
1051984
1052098
1052211
1052321
1052431
1052542
1052655
1052772
1052886
1053003
1053121
1053234
1053349
1053468
1053587
1053706
1053825
1053948
1054064
1054184
1054305
1054425
1054540
1054658
1054774
1054891
1055005
1055124
1055246
1055372
1055490
1055611
1055733
1055856
1055973
1056092
1056212
1056330
1056447
1056567
1056687
1056807
1056923
1057042
1057161
1057280
1057397
1057517
1057638
1057751
1057865
1057975
1058088
1058202
1058314
1058430
1058549
1058670
1058789
1058903
1059019
1059134
1059247
1059357
1059469
1059584
1059698
1059811
1059928
1060046
1060161
1060277
1060393
1060508
1060623
1060735
1060846
1060962
1061079
1061193
1061309
1061426
1061543
1061655
1061772
1061889
1062007
1062123
1062239
1062356
1062473
1062590
1062703
1062813
1062927
1063041
1063158
1063284
1063413
1063536
1063660
1063784
1063901
1064021
1064141
1064261
1064379
1064493
1064608
1064721
1064833
1064942
1065051
1065161
1065274
1065386
1065500
1065612
1065724
1065836
1065946
1066058
1066164
1066274
1066385
1066497
1066610
1066721
1066833
1066943
1067056
1067168
1067280
1067392
1067510
1067630
1067747
1067863
1067983
1068105
1068224
1068343
1068458
1068576
1068691
1068809
1068928
1069050
1069176
1069301
1069417
1069535
1069651
1069766
1069881
1069998
1070114
1070229
1070343
1070455
1070569
1070685
1070798
1070911
1071026
1071140
1071250
1071362
1071473
1071585
1071694
1071803
1071908
1072009
1072107
1072208
1072307
1072406
1072505
1072600
1072692
1072783
1072874
1072964
1073051
1073139
1073225
1073310
1073394
1073476
1073558
1073640
1073723
1073813
1073906
1074002
1074097
1074198
1074303
1074415
1074529
1074643
1074754
1074866
1074976
1075085
1075190
1075294
1075397
1075503
1075612
1075727
1075842
1075957
1076071
1076181
1076290
1076398
1076508
1076619
1076732
1076847
1076962
1077074
1077189
1077304
1077416
1077528
1077639
1077748
1077854
1077962
1078072
1078183
1078295
1078407
1078521
1078635
1078746
1078854
1078958
1079059
1079160
1079263
1079373
1079485
1079598
1079709
1079821
1079933
1080043
1080150
1080257
1080365
1080477
1080589
1080704
1080821
1080940
1081060
1081174
1081289
1081401
1081508
1081613
1081718
1081825
1081935
1082047
1082161
1082274
1082390
1082506
1082622
1082738
1082853
1082966
1083074
1083183
1083293
1083403
1083514
1083624
1083739
1083855
1083969
1084081
1084191
1084298
1084406
1084515
1084624
1084733
1084843
1084953
1085062
1085170
1085273
1085378
1085488
1085600
1085712
1085825
1085934
1086044
1086155
1086264
1086374
1086483
1086592
1086703
1086812
1086925
1087035
1087144
1087251
1087362
1087474
1087587
1087700
1087816
1087930
1088045
1088155
1088268
1088383
1088498
1088610
1088726
1088846
1088963
1089077
1089196
1089316
1089439
1089567
1089698
1089828
1089961
1090094
1090228
1090358
1090485
1090613
1090741
1090866
1090990
1091116
1091237
1091356
1091477
1091600
1091718
1091839
1091960
1092079
1092193
1092306
1092422
1092539
1092656
1092773
1092885
1092997
1093110
1093223
1093336
1093451
1093568
1093689
1093807
1093924
1094044
1094166
1094289
1094410
1094529
1094651
1094775
1094901
1095021
1095145
1095269
1095393
1095511
1095632
1095753
1095871
1095992
1096115
1096238
1096356
1096476
1096597
1096716
1096833
1096952
1097073
1097191
1097309
1097428
1097545
1097658
1097770
1097885
1097998
1098105
1098211
1098315
1098415
1098512
1098608
1098707
1098807
1098906
1099005
1099107
1099206
1099305
1099401
1099501
1099603
1099710
1099818
1099927
1100039
1100151
1100263
1100374
1100485
1100595
1100707
1100815
1100921
1101031
1101137
1101241
1101346
1101450
1101553
1101656
1101756
1101854
1101954
1102054
1102151
1102250
1102350
1102448
1102543
1102639
1102734
1102832
1102929
1103024
1103121
1103218
1103315
1103410
1103504
1103596
1103685
1103776
1103864
1103951
1104039
1104126
1104216
1104310
1104404
1104500
1104598
1104698
1104796
1104893
1104991
1105091
1105189
1105291
1105391
1105490
1105588
1105688
1105790
1105893
1105999
1106107
1106217
1106334
1106451
1106564
1106678
1106792
1106901
1107009
1107120
1107229
1107340
1107456
1107577
1107693
1107810
1107928
1108043
1108154
1108265
1108378
1108489
1108599
1108712
1108829
1108943
1109058
1109176
1109294
1109405
1109518
1109629
1109738
1109853
1109971
1110085
1110204
1110326
1110442
1110560
1110679
1110797
1110912
1111029
1111145
1111260
1111378
1111496
1111611
1111723
1111830
1111939
1112051
1112165
1112276
1112393
1112511
1112625
1112741
1112859
1112975
1113092
1113214
1113337
1113453
1113573
1113692
1113807
1113924
1114042
1114156
1114272
1114390
1114506
1114623
1114743
1114862
1114979
1115094
1115210
1115327
1115437
1115551
1115664
1115776
1115888
1116002
1116118
1116230
1116345
1116462
1116578
1116691
1116805
1116921
1117038
1117149
1117262
1117372
1117480
1117587
1117694
1117806
1117917
1118026
1118140
1118256
1118370
1118483
1118597
1118714
1118831
1118947
1119064
1119183
1119299
1119411
1119526
1119642
1119756
1119870
1119987
1120106
1120221
1120337
1120454
1120570
1120683
1120795
1120907
1121023
1121134
1121245
1121360
1121477
1121589
1121704
1121819
1121935
1122048
1122163
1122279
1122392
1122510
1122627
1122744
1122858
1122968
1123079
1123191
1123304
1123413
1123524
1123638
1123755
1123867
1123983
1124101
1124219
1124334
1124450
1124566
1124679
1124793
1124909
1125026
1125140
1125257
1125374
1125488
1125600
1125714
1125828
1125940
1126056
1126172
1126290
1126400
1126512
1126619
1126726
1126828
1126928
1127023
1127117
1127209
1127300
1127389
1127477
1127565
1127652
1127737
1127826
1127913
1128002
1128096
1128195
1128296
1128392
1128490
1128591
1128690
1128794
1128904
1129016
1129125
1129233
1129343
1129451
1129557
1129665
1129775
1129880
1129990
1130105
1130216
1130331
1130448
1130561
1130672
1130784
1130897
1131005
1131111
1131216
1131318
1131421
1131526
1131631
1131741
1131856
1131969
1132083
1132201
1132321
1132440
1132561
1132686
1132809
1132930
1133053
1133175
1133295
1133417
1133539
1133659
1133781
1133905
1134030
1134150
1134271
1134393
1134513
1134627
1134741
1134857
1134974
1135088
1135204
1135322
1135439
1135554
1135662
1135771
1135877
1135981
1136086
1136193
1136301
1136409
1136517
1136628
1136738
1136845
1136955
1137064
1137170
1137282
1137400
1137525
1137646
1137767
1137887
1138001
1138113
1138224
1138331
1138435
1138532
1138632
1138730
1138826
1138921
1139018
1139113
1139211
1139309
1139403
1139497
1139592
1139684
1139777
1139870
1139962
1140053
1140143
1140233
1140321
1140410
1140497
1140585
1140675
1140763
1140853
1140942
1141032
1141122
1141215
1141308
1141399
1141489
1141580
1141668
1141756
1141845
1141935
1142032
1142130
1142230
1142335
1142441
1142548
1142652
1142752
1142848
1142943
1143032
1143121
1143211
1143301
1143393
1143487
1143583
1143681
1143779
1143875
1143974
1144071
1144167
1144264
1144360
1144455
1144552
1144652
1144750
1144849
1144947
1145049
1145148
1145245
1145344
1145446
1145547
1145649
1145748
1145848
1145948
1146053
1146166
1146281
1146396
1146515
1146632
1146745
1146857
1146968
1147079
1147189
1147295
1147400
1147506
1147612
1147718
1147827
1147940
1148052
1148167
1148281
1148393
1148505
1148614
1148724
1148832
1148936
1149039
1149140
1149244
1149354
1149470
1149587
1149702
1149816
1149924
1150031
1150137
1150241
1150348
1150455
1150562
1150669
1150775
1150876
1150975
1151074
1151175
1151280
1151385
1151489
1151592
1151695
1151800
1151911
1152021
1152136
1152249
1152361
1152472
1152583
1152693
1152803
1152907
1153011
1153118
1153232
1153350
1153465
1153579
1153690
1153804
1153919
1154035
1154149
1154257
1154366
1154476
1154588
1154700
1154812
1154925
1155043
1155160
1155273
1155381
1155486
1155590
1155695
1155803
1155914
1156028
1156139
1156248
1156358
1156466
1156571
1156671
1156774
1156872
1156975
1157080
1157188
1157295
1157399
1157504
1157605
1157704
1157809
1157914
1158016
1158117
1158219
1158320
1158423
1158523
1158623
1158722
1158821
1158922
1159022
1159126
1159228
1159331
1159432
1159536
1159638
1159740
1159840
1159939
1160035
1160133
1160230
1160329
1160429
1160529
1160628
1160727
1160824
1160919
1161012
1161110
1161205
1161301
1161398
1161493
1161590
1161684
1161778
1161873
1161968
1162066
1162170
1162274
1162378
1162482
1162584
1162688
1162791
1162894
1162992
1163093
1163193
1163292
1163389
1163485
1163578
1163670
1163762
1163850
1163939
1164025
1164115
1164200
1164289
1164379
1164469
1164562
1164659
1164758
1164860
1164966
1165078
1165191
1165303
1165417
1165532
1165644
1165757
1165873
1165990
1166103
1166218
1166333
1166448
1166562
1166677
1166791
1166906
1167017
1167127
1167234
1167341
1167452
1167565
1167677
1167790
1167902
1168011
1168121
1168233
1168344
1168452
1168560
1168670
1168781
1168890
1169001
1169115
1169225
1169336
1169449
1169560
1169668
1169779
1169889
1169993
1170098
1170205
1170309
1170414
1170523
1170632
1170738
1170844
1170945
1171053
1171161
1171268
1171376
1171486
1171596
1171704
1171814
1171930
1172047
1172160
1172272
1172387
1172503
1172614
1172727
1172843
1172960
1173072
1173186
1173302
1173414
1173525
1173638
1173752
1173864
1173979
1174096
1174215
1174331
1174449
1174565
1174676
1174786
1174897
1175005
1175114
1175225
1175340
1175453
1175569
1175684
1175795
1175907
1176020
1176131
1176240
1176350
1176462
1176570
1176677
1176785
1176892
1176997
1177106
1177213
1177321
1177424
1177532
1177638
1177747
1177862
1177977
1178084
1178190
1178291
1178391
1178491
1178599
1178717
1178831
1178950
1179074
1179199
1179319
1179438
1179560
1179680
1179798
1179916
1180039
1180163
1180286
1180407
1180521
1180632
1180743
1180856
1180969
1181085
1181203
1181323
1181439
1181558
1181678
1181793
1181907
1182025
1182143
1182258
1182374
1182494
1182612
1182725
1182841
1182955
1183061
1183168
1183274
1183384
1183496
1183612
1183732
1183850
1183969
1184088
1184208
1184323
1184436
1184551
1184663
1184773
1184881
1184990
1185101
1185209
1185322
1185436
1185553
1185672
1185792
1185909
1186029
1186148
1186267
1186387
1186510
1186627
1186746
1186862
1186976
1187089
1187204
1187320
1187436
1187552
1187668
1187784
1187896
1188009
1188122
1188238
1188356
1188475
1188593
1188710
1188827
1188946
1189067
1189186
1189300
1189415
1189530
1189643
1189757
1189874
1189994
1190117
1190237
1190354
1190473
1190592
1190707
1190824
1190941
1191057
1191173
1191283
1191394
1191506
1191621
1191741
1191863
1191983
1192100
1192214
1192323
1192430
1192539
1192650
1192766
1192883
1193002
1193126
1193252
1193375
1193494
1193610
1193726
1193842
1193958
1194076
1194194
1194311
1194425
1194535
1194643
1194750
1194858
1194971
1195089
1195211
1195328
1195446
1195564
1195682
1195800
1195912
1196024
1196135
1196248
1196363
1196476
1196589
1196706
1196819
1196936
1197057
1197181
1197304
1197427
1197545
1197658
1197772
1197884
1197996
1198105
1198214
1198325
1198439
1198553
1198666
1198773
1198881
1198991
1199107
1199223
1199336
1199449
1199564
1199677
1199790
1199901
1200012
1200126
1200240
1200353
1200462
1200573
1200686
1200803
1200920
1201034
1201147
1201258
1201366
1201472
1201580
1201685
1201792
1201904
1202018
1202134
1202250
1202366
1202475
1202583
1202688
1202795
1202907
1203023
1203142
1203257
1203373
1203492
1203610
1203728
1203842
1203957
1204074
1204192
1204311
1204421
1204532
1204644
1204758
1204874
1204989
1205105
1205221
1205336
1205450
1205565
1205681
1205797
1205915
1206032
1206147
1206261
1206374
1206488
1206601
1206716
1206833
1206951
1207069
1207190
1207310
1207431
1207547
1207663
1207781
1207901
1208023
1208142
1208258
1208374
1208486
1208596
1208707
1208814
1208920
1209025
1209133
1209246
1209359
1209475
1209596
1209721
1209846
1209968
1210088
1210207
1210325
1210439
1210554
1210669
1210782
1210895
1211012
1211131
1211247
1211363
1211478
1211593
1211709
1211826
1211941
1212056
1212174
1212291
1212406
1212517
1212627
1212738
1212851
1212962
1213075
1213189
1213302
1213412
1213518
1213625
1213731
1213840
1213953
1214067
1214183
1214302
1214423
1214538
1214654
1214768
1214882
1214996
1215111
1215226
1215344
1215462
1215581
1215697
1215814
1215934
1216056
1216175
1216296
1216418
1216542
1216662
1216780
1216899
1217019
1217136
1217255
1217374
1217491
1217608
1217725
1217844
1217965
1218080
1218196
1218314
1218434
1218552
1218671
1218788
1218904
1219019
1219137
1219256
1219375
1219493
1219610
1219729
1219845
1219960
1220077
1220194
1220309
1220424
1220538
1220653
1220770
1220884
1220997
1221109
1221224
1221342
1221460
1221579
1221697
1221815
1221930
1222043
1222156
1222271
1222386
1222498
1222612
1222726
1222843
1222956
1223072
1223189
1223307
1223420
1223533
1223648
1223765
1223880
1223992
1224107
1224222
1224336
1224452
1224571
1224691
1224809
1224928
1225050
1225174
1225298
1225418
1225538
1225661
1225780
1225898
1226017
1226138
1226255
1226373
1226494
1226614
1226732
1226849
1226968
1227088
1227207
1227321
1227437
1227554
1227675
1227795
1227914
1228034
1228155
1228274
1228390
1228504
1228621
1228739
1228858
1228979
1229101
1229214
1229327
1229440
1229554
1229670
1229786
1229904
1230027
1230151
1230273
1230393
1230512
1230624
1230737
1230849
1230964
1231078
1231191
1231305
1231419
1231526
1231635
1231745
1231857
1231973
1232089
1232203
1232316
1232428
1232536
1232645
1232754
1232863
1232974
1233089
1233204
1233317
1233433
1233550
1233669
1233787
1233904
1234017
1234129
1234240
1234353
1234466
1234575
1234687
1234795
1234907
1235017
1235126
1235238
1235350
1235464
1235577
1235689
1235797
1235906
1236018
1236129
1236243
1236354
1236469
1236583
1236693
1236806
1236918
1237027
1237134
1237244
1237362
1237483
1237600
1237714
1237826
1237936
1238045
1238151
1238262
1238371
1238483
1238594
1238704
1238812
1238916
1239019
1239121
1239221
1239325
1239437
1239560
1239684
1239805
1239923
1240041
1240158
1240273
1240386
1240497
1240606
1240713
1240821
1240925
1241031
1241133
1241232
1241329
1241424
1241519
1241615
1241709
1241801
1241893
1241984
1242075
1242166
1242258
1242352
1242452
1242557
1242664
1242777
1242894
1243012
1243132
1243254
1243373
1243492
1243609
1243724
1243839
1243956
1244074
1244192
1244308
1244425
1244541
1244656
1244771
1244882
1244991
1245099
1245204
1245309
1245414
1245518
1245619
1245720
1245820
1245919
1246019
1246119
1246221
1246326
1246432
1246542
1246656
1246768
1246878
1246987
1247094
1247197
1247301
1247405
1247508
1247614
1247721
1247826
1247931
1248035
1248141
1248246
1248356
1248462
1248568
1248672
1248773
1248873
1248972
1249071
1249166
1249262
1249356
1249449
1249540
1249631
1249719
1249811
1249905
1249998
1250098
1250195
1250291
1250388
1250485
1250580
1250674
1250768
1250862
1250956
1251051
1251147
1251244
1251341
1251440
1251536
1251632
1251726
1251821
1251916
1252014
1252113
1252213
1252313
1252415
1252517
1252621
1252727
1252830
1252933
1253035
1253136
1253237
1253338
1253439
1253539
1253639
1253740
1253843
1253949
1254054
1254157
1254261
1254364
1254466
1254570
1254679
1254787
1254894
1255002
1255111
1255216
1255321
1255423
1255524
1255629
1255738
1255849
1255963
1256076
1256185
1256297
1256406
1256511
1256619
1256727
1256837
1256948
1257057
1257168
1257282
1257395
1257504
1257612
1257718
1257824
1257928
1258027
1258133
1258236
1258349
1258469
1258590
1258706
1258824
1258940
1259058
1259170
1259282
1259391
1259498
1259603
1259706
1259807
1259910
1260015
1260119
1260233
1260357
1260483
1260611
1260733
1260854
1260972
1261090
1261203
1261318
1261430
1261543
1261660
1261775
1261892
1262011
1262130
1262244
1262358
1262477
1262603
1262731
1262855
1262976
1263097
1263215
1263336
1263459
1263578
1263692
1263806
1263919
1264029
1264139
1264248
1264356
1264468
1264585
1264703
1264817
1264928
1265040
1265150
1265255
1265362
1265470
1265578
1265688
1265803
1265919
1266029
1266134
1266238
1266339
1266439
1266542
1266651
1266761
1266870
1266982
1267095
1267208
1267323
1267436
1267548
1267658
1267767
1267872
1267978
1268087
1268202
1268319
1268438
1268557
1268671
1268781
1268889
1268992
1269094
1269196
1269298
1269400
1269501
1269604
1269704
1269804
1269902
1269998
1270093
1270188
1270282
1270380
1270476
1270571
1270667
1270773
1270878
1270986
1271097
1271203
1271309
1271418
1271528
1271645
1271761
1271878
1271999
1272118
1272246
1272372
1272488
1272602
1272712
1272818
1272919
1273018
1273114
1273210
1273307
1273400
1273491
1273581
1273672
1273764
1273860
1273959
1274056
1274153
1274252
1274350
1274451
1274552
1274656
1274760
1274866
1274976
1275085
1275194
1275302
1275408
1275512
1275612
1275713
1275815
1275921
1276026
1276132
1276236
1276340
1276439
1276537
1276632
1276729
1276824
1276918
1277019
1277125
1277228
1277329
1277431
1277530
1277627
1277723
1277821
1277922
1278026
1278137
1278249
1278360
1278474
1278588
1278700
1278811
1278920
1279023
1279127
1279235
1279342
1279445
1279546
1279644
1279745
1279845
1279948
1280049
1280149
1280255
1280362
1280469
1280578
1280695
1280815
1280936
1281064
1281195
1281323
1281451
1281581
1281705
1281829
1281959
1282091
1282214
1282336
1282454
1282566
1282678
1282789
1282898
1283006
1283111
1283214
1283315
1283412
1283510
1283613
1283718
1283825
1283929
1284037
1284149
1284263
1284380
1284494
1284611
1284727
1284840
1284950
1285056
1285162
1285271
1285388
1285505
1285624
1285745
1285865
1285982
1286101
1286215
1286328
1286439
1286549
1286658
1286767
1286875
1286983
1287090
1287194
1287300
1287409
1287524
1287639
1287750
1287860
1287969
1288076
1288182
1288287
1288394
1288499
1288604
1288712
1288825
1288943
1289065
1289189
1289310
1289430
1289549
1289663
1289774
1289880
1289985
1290084
1290188
1290301
1290419
1290538
1290658
1290775
1290893
1291010
1291124
1291236
1291347
1291458
1291564
1291673
1291783
1291891
1292001
1292112
1292223
1292332
1292442
1292556
1292669
1292785
1292903
1293017
1293131
1293243
1293350
1293458
1293564
1293673
1293783
1293892
1294005
1294116
1294226
1294338
1294449
1294560
1294670
1294774
1294879
1294983
1295085
1295189
1295294
1295398
1295504
1295611
1295715
1295820
1295924
1296026
1296130
1296235
1296336
1296440
1296543
1296647
1296751
1296852
1296953
1297056
1297155
1297255
1297357
1297461
1297566
1297672
1297777
1297884
1297992
1298103
1298212
1298316
1298420
1298522
1298626
1298729
1298833
1298939
1299049
1299157
1299267
1299380
1299493
1299606
1299718
1299831
1299940
1300048
1300157
1300265
1300375
1300486
1300593
1300699
1300804
1300909
1301011
1301113
1301216
1301318
1301425
1301530
1301634
1301737
1301840
1301941
1302042
1302144
1302249
1302353
1302460
1302570
1302683
1302795
1302903
1303011
1303119
1303221
1303323
1303426
1303530
1303636
1303746
1303855
1303966
1304077
1304189
1304301
1304406
1304507
1304606
1304704
1304806
1304911
1305023
1305136
1305254
1305372
1305488
1305605
1305720
1305839
1305953
1306070
1306189
1306307
1306432
1306560
1306684
1306811
1306936
1307054
1307177
1307303
1307426
1307552
1307676
1307795
1307914
1308035
1308156
1308277
1308399
1308518
1308640
1308758
1308873
1308989
1309105
1309220
1309338
1309456
1309570
1309683
1309800
1309918
1310034
1310153
1310268
1310382
1310494
1310606
1310714
1310825
1310941
1311054
1311166
1311277
1311382
1311489
1311590
1311693
1311801
1311914
1312028
1312136
1312239
1312341
1312439
1312536
1312634
1312733
1312833
1312934
1313037
1313142
1313248
1313357
1313469
1313587
1313716
1313839
1313960
1314079
1314196
1314312
1314426
1314539
1314652
1314763
1314871
1314979
1315088
1315196
1315302
1315412
1315522
1315633
1315745
1315856
1315968
1316080
1316192
1316308
1316426
1316546
1316667
1316786
1316906
1317027
1317151
1317282
1317416
1317551
1317679
1317805
1317930
1318055
1318184
1318319
1318455
1318590
1318718
1318846
1318975
1319105
1319228
1319353
1319476
1319602
1319731
1319860
1319987
1320108
1320231
1320355
1320482
1320611
1320741
1320870
1320999
1321127
1321251
1321380
1321509
1321635
1321754
1321875
1321997
1322125
1322259
1322387
1322520
1322650
1322775
1322902
1323031
1323155
1323286
1323416
1323555
1323695
1323826
1323959
1324091
1324219
1324347
1324478
1324605
1324734
1324868
1325005
1325136
1325268
1325397
1325521
1325644
1325770
1325895
1326023
1326147
1326269
1326394
1326521
1326644
1326770
1326894
1327023
1327152
1327275
1327400
1327526
1327649
1327775
1327898
1328019
1328141
1328260
1328384
1328511
1328641
1328771
1328898
1329016
1329134
1329254
1329377
1329502
1329630
1329760
1329886
1330013
1330137
1330265
1330396
1330527
1330659
1330791
1330922
1331054
1331186
1331315
1331448
1331583
1331716
1331849
1331980
1332110
1332244
1332383
1332518
1332645
1332777
1332906
1333037
1333169
1333299
1333427
1333547
1333669
1333796
1333927
1334060
1334192
1334323
1334445
1334568
1334695
1334821
1334952
1335082
1335213
1335345
1335472
1335591
1335709
1335823
1335948
1336076
1336206
1336336
1336467
1336594
1336713
1336827
1336943
1337062
1337186
1337309
1337434
1337562
1337687
1337813
1337939
1338069
1338194
1338327
1338459
1338590
1338716
1338844
1338972
1339095
1339220
1339348
1339468
1339589
1339711
1339830
1339948
1340065
1340180
1340295
1340411
1340530
1340651
1340769
1340887
1341010
1341135
1341260
1341382
1341500
1341622
1341752
1341887
1342026
1342161
1342298
1342434
1342560
1342688
1342810
1342930
1343055
1343176
1343300
1343435
1343568
1343701
1343836
1343971
1344104
1344241
1344378
1344515
1344652
1344784
1344918
1345053
1345183
1345316
1345454
1345592
1345724
1345859
1345995
1346124
1346252
1346382
1346511
1346635
1346761
1346890
1347024
1347158
1347284
1347411
1347535
1347660
1347781
1347905
1348032
1348165
1348297
1348426
1348557
1348689
1348823
1348954
1349086
1349218
1349350
1349486
1349620
1349746
1349866
1349986
1350105
1350226
1350351
1350484
1350612
1350746
1350880
1351010
1351146
1351280
1351413
1351543
1351673
1351804
1351937
1352072
1352208
1352344
1352477
1352608
1352742
1352874
1353011
1353150
1353286
1353419
1353551
1353677
1353804
1353939
1354078
1354216
1354349
1354482
1354613
1354743
1354874
1355000
1355131
1355266
1355401
1355540
1355678
1355815
1355949
1356084
1356222
1356360
1356498
1356639
1356778
1356918
1357049
1357180
1357305
1357435
1357563
1357695
1357829
1357957
1358088
1358218
1358346
1358471
1358596
1358720
1358845
1358970
1359093
1359225
1359364
1359502
1359634
1359765
1359889
1360010
1360133
1360259
1360383
1360507
1360631
1360749
1360868
1360989
1361109
1361230
1361357
1361495
1361635
1361772
1361906
1362038
1362167
1362298
1362431
1362565
1362699
1362830
1362960
1363091
1363223
1363357
1363492
1363630
1363766
1363898
1364031
1364162
1364287
1364411
1364538
1364671
1364803
1364927
1365047
1365167
1365295
1365419
1365541
1365666
1365793
1365916
1366041
1366165
1366284
1366403
1366526
1366649
1366776
1366906
1367033
1367165
1367300
1367434
1367567
1367701
1367830
1367957
1368088
1368224
1368361
1368493
1368618
1368742
1368868
1368995
1369122
1369249
1369377
1369508
1369638
1369772
1369911
1370052
1370193
1370332
1370467
1370596
1370724
1370853
1370983
1371111
1371242
1371373
1371502
1371628
1371754
1371886
1372024
1372165
1372305
1372442
1372572
1372704
1372837
1372969
1373102
1373229
1373360
1373490
1373618
1373751
1373883
1374013
1374148
1374281
1374410
1374541
1374669
1374793
1374921
1375050
1375178
1375303
1375434
1375568
1375701
1375828
1375958
1376089
1376220
1376347
1376472
1376603
1376735
1376868
1377002
1377133
1377260
1377387
1377516
1377646
1377772
1377900
1378037
1378172
1378305
1378442
1378576
1378706
1378839
1378973
1379110
1379243
1379377
1379511
1379644
1379780
1379915
1380045
1380172
1380302
1380431
1380558
1380689
1380823
1380958
1381090
1381221
1381353
1381488
1381624
1381760
1381889
1382018
1382148
1382275
1382400
1382528
1382657
1382781
1382904
1383028
1383149
1383271
1383398
1383531
1383666
1383798
1383930
1384061
1384192
1384322
1384449
1384571
1384694
1384818
1384940
1385064
1385197
1385338
1385476
1385613
1385745
1385877
1386000
1386124
1386250
1386375
1386497
1386620
1386739
1386857
1386974
1387093
1387214
1387333
1387455
1387579
1387708
1387839
1387972
1388105
1388237
1388369
1388497
1388625
1388756
1388886
1389017
1389153
1389291
1389421
1389556
1389690
1389826
1389952
1390082
1390210
1390337
1390466
1390597
1390723
1390851
1390985
1391118
1391260
1391395
1391533
1391667
1391796
1391927
1392058
1392186
1392325
1392463
1392603
1392742
1392875
1393010
1393147
1393285
1393421
1393560
1393698
1393828
1393963
1394099
1394235
1394373
1394506
1394643
1394779
1394909
1395043
1395175
1395307
1395439
1395574
1395709
1395845
1395980
1396117
1396250
1396381
1396505
1396637
1396772
1396904
1397035
1397164
1397295
1397424
1397547
1397670
1397799
1397939
1398070
1398210
1398345
1398479
1398613
1398747
1398880
1399012
1399143
1399271
1399403
1399535
1399670
1399805
1399936
1400063
1400188
1400314
1400444
1400580
1400717
1400853
1400985
1401117
1401246
1401369
1401488
1401607
1401731
1401857
1401980
1402101
1402225
1402349
1402473
1402596
1402721
1402845
1402974
1403101
1403228
1403355
1403483
1403613
1403743
1403876
1404008
1404141
1404273
1404406
1404535
1404669
1404805
1404933
1405061
1405194
1405330
1405464
1405594
1405723
1405847
1405976
1406103
1406238
1406374
1406505
1406637
1406769
1406903
1407035
1407164
1407299
1407439
1407576
1407711
1407848
1407985
1408117
1408246
1408371
1408489
1408599
1408711
1408817
1408920
1409020
1409122
1409224
1409325
1409430
1409541
1409659
1409779
1409905
1410034
1410163
1410288
1410406
1410521
1410634
1410740
1410845
1410950
1411051
1411155
1411255
1411353
1411452
1411548
1411642
1411736
1411828
1411931
1412052
1412178
1412311
1412447
1412592
1412731
1412873
1413014
1413150
1413285
1413420
1413547
1413669
1413786
1413909
1414035
1414162
1414287
1414416
1414543
1414674
1414807
1414937
1415067
1415202
1415339
1415479
1415617
1415753
1415892
1416031
1416167
1416303
1416437
1416570
1416702
1416833
1416967
1417094
1417229
1417365
1417499
1417635
1417770
1417905
1418045
1418183
1418318
1418454
1418590
1418726
1418860
1418994
1419129
1419264
1419399
1419527
1419658
1419793
1419930
1420059
1420188
1420314
1420438
1420561
1420684
1420807
1420929
1421053
1421175
1421300
1421427
1421554
1421679
1421804
1421933
1422062
1422193
1422324
1422451
1422576
1422703
1422830
1422956
1423077
1423197
1423312
1423430
1423555
1423669
1423791
1423920
1424050
1424186
1424322
1424456
1424590
1424719
1424849
1424981
1425114
1425247
1425380
1425512
1425645
1425782
1425920
1426052
1426185
1426318
1426447
1426578
1426714
1426844
1426976
1427110
1427242
1427375
1427509
1427639
1427764
1427890
1428013
1428144
1428281
1428414
1428546
1428673
1428810
1428951
1429071
1429200
1429331
1429458
1429576
1429694
1429807
1429914
1430029
1430138
1430245
1430352
1430456
1430559
1430660
1430758
1430858
1430957
1431058
1431161
1431267
1431374
1431481
1431585
1431692
1431799
1431910
1432022
1432137
1432252
1432367
1432483
1432599
1432718
1432835
1432951
1433067
1433188
1433307
1433426
1433549
1433669
1433790
1433912
1434036
1434159
1434283
1434406
1434525
1434642
1434754
1434865
1434978
1435092
1435208
1435324
1435438
1435551
1435663
1435774
1435886
1436000
1436116
1436238
1436359
1436476
1436592
1436706
1436817
1436926
1437031
1437135
1437239
1437342
1437448
1437557
1437662
1437773
1437881
1437989
1438094
1438198
1438295
1438389
1438485
1438578
1438670
1438758
1438846
1438934
1439018
1439103
1439197
1439302
1439412
1439518
1439626
1439733
1439841
1439945
1440047
1440147
1440247
1440341
1440436
1440528
1440624
1440720
1440819
1440938
1441056
1441170
1441292
1441407
1441529
1441648
1441760
1441868
1441973
1442072
1442168
1442261
1442355
1442443
1442530
1442618
1442704
1442790
1442873
1442956
1443040
1443123
1443207
1443293
1443385
1443492
1443611
1443733
1443859
1443980
1444102
1444225
1444352
1444477
1444609
1444745
1444876
1445001
1445125
1445248
1445366
1445490
1445610
1445730
1445851
1445971
1446090
1446205
1446323
1446440
1446560
1446682
1446806
1446934
1447066
1447197
1447327
1447451
1447570
1447684
1447798
1447914
1448032
1448152
1448274
1448394
1448512
1448633
1448751
1448870
1448994
1449110
1449228
1449349
1449470
1449592
1449717
1449837
1449956
1450078
1450199
1450319
1450440
1450559
1450681
1450804
1450923
1451042
1451164
1451284
1451403
1451523
1451637
1451755
1451876
1451993
1452110
1452225
1452341
1452449
1452557
1452662
1452767
1452871
1452980
1453096
1453214
1453329
1453444
1453555
1453667
1453776
1453883
1453988
1454090
1454192
1454297
1454410
1454521
1454642
1454769
1454890
1455014
1455139
1455269
1455394
1455511
1455635
1455758
1455885
1456011
1456138
1456263
1456384
1456501
1456618
1456743
1456873
1457006
1457138
1457281
1457420
1457558
1457694
1457827
1457963
1458096
1458231
1458368
1458501
1458635
1458770
1458901
1459029
1459160
1459290
1459421
1459540
1459660
1459783
1459915
1460050
1460173
1460296
1460425
1460555
1460685
1460819
1460951
1461080
1461210
1461341
1461473
1461605
1461741
1461873
1462008
1462145
1462285
1462423
1462552
1462682
1462807
1462933
1463059
1463194
1463319
1463446
1463578
1463711
1463844
1463976
1464101
1464227
1464354
1464480
1464603
1464729
1464860
1464994
1465130
1465269
1465407
1465538
1465668
1465797
1465925
1466048
1466174
1466300
1466423
1466548
1466679
1466813
1466946
1467086
1467224
1467357
1467491
1467623
1467750
1467881
1468014
1468142
1468278
1468415
1468546
1468676
1468804
1468927
1469050
1469175
1469303
1469434
1469562
1469691
1469819
1469947
1470072
1470203
1470331
1470459
1470589
1470718
1470847
1470973
1471103
1471231
1471356
1471485
1471615
1471740
1471867
1471996
1472122
1472248
1472375
1472500
1472617
1472733
1472850
1472964
1473078
1473198
1473321
1473444
1473568
1473694
1473818
1473947
1474077
1474209
1474343
1474476
1474611
1474744
1474872
1475002
1475132
1475263
1475387
1475515
1475646
1475770
1475896
1476022
1476148
1476275
1476402
1476524
1476646
1476769
1476895
1477019
1477141
1477259
1477377
1477497
1477619
1477744
1477860
1477980
1478099
1478221
1478347
1478475
1478605
1478730
1478852
1478972
1479089
1479211
1479329
1479443
1479559
1479674
1479792
1479914
1480040
1480167
1480295
1480424
1480551
1480672
1480794
1480919
1481050
1481176
1481305
1481435
1481562
1481693
1481830
1481974
1482120
1482262
1482402
1482542
1482678
1482813
1482948
1483078
1483208
1483337
1483461
1483587
1483714
1483838
1483961
1484086
1484210
1484337
1484465
1484591
1484716
1484838
1484961
1485090
1485228
1485369
1485506
1485637
1485770
1485895
1486023
1486154
1486286
1486412
1486534
1486651
1486776
1486898
1487018
1487144
1487271
1487391
1487507
1487627
1487752
1487882
1488013
1488143
1488277
1488411
1488541
1488672
1488805
1488935
1489062
1489190
1489316
1489440
1489566
1489692
1489819
1489944
1490072
1490200
1490326
1490453
1490580
1490700
1490822
1490948
1491079
1491212
1491343
1491473
1491602
1491724
1491847
1491971
1492096
1492224
1492357
1492495
1492625
1492757
1492889
1493019
1493149
1493280
1493407
1493534
1493660
1493788
1493916
1494045
1494176
1494307
1494434
1494562
1494691
1494825
1494953
1495080
1495200
1495322
1495435
1495552
1495672
1495793
1495914
1496033
1496149
1496268
1496387
1496509
1496630
1496749
1496872
1496994
1497114
1497234
1497356
1497477
1497596
1497711
1497827
1497945
1498068
1498193
1498320
1498449
1498580
1498707
1498836
1498968
1499106
1499232
1499360
1499490
1499618
1499748
1499872
1499997
1500121
1500251
1500383
1500516
1500648
1500776
1500901
1501029
1501159
1501285
1501416
1501547
1501679
1501808
1501932
1502053
1502177
1502304
1502440
1502580
1502716
1502852
1502986
1503118
1503247
1503375
1503498
1503621
1503744
1503865
1503989
1504115
1504236
1504358
1504480
1504605
1504729
1504852
1504975
1505093
1505209
1505326
1505441
1505559
1505681
1505806
1505932
1506057
1506178
1506296
1506414
1506533
1506655
1506777
1506900
1507026
1507151
1507275
1507396
1507514
1507633
1507748
1507866
1507984
1508108
1508231
1508353
1508479
1508605
1508731
1508856
1508975
1509094
1509214
1509335
1509457
1509578
1509697
1509813
1509933
1510054
1510172
1510287
1510403
1510519
1510636
1510755
1510874
1510994
1511114
1511234
1511355
1511480
1511609
1511741
1511874
1512004
1512132
1512260
1512385
1512512
1512638
1512763
1512888
1513009
1513128
1513249
1513372
1513494
1513615
1513733
1513852
1513973
1514097
1514234
1514371
1514506
1514637
1514768
1514892
1515019
1515145
1515272
1515400
1515529
1515654
1515782
1515911
1516039
1516166
1516289
1516408
1516525
1516636
1516750
1516867
1516988
1517112
1517238
1517363
1517482
1517598
1517716
1517837
1517958
1518076
1518189
1518304
1518421
1518543
1518666
1518790
1518917
1519051
1519183
1519317
1519453
1519588
1519720
1519848
1519975
1520103
1520231
1520354
1520482
1520612
1520744
1520874
1521004
1521129
1521251
1521370
1521491
1521611
1521728
1521853
1521979
1522103
1522229
1522355
1522487
1522619
1522749
1522874
1522995
1523114
1523235
1523359
1523486
1523614
1523735
1523855
1523975
1524098
1524226
1524358
1524488
1524618
1524750
1524881
1525009
1525137
1525262
1525384
1525507
1525634
1525761
1525895
1526029
1526163
1526295
1526428
1526559
1526688
1526815
1526939
1527064
1527187
1527314
1527447
1527575
1527700
1527829
1527951
1528077
1528204
1528330
1528453
1528573
1528695
1528819
1528942
1529069
1529193
1529318
1529441
1529565
1529690
1529817
1529943
1530066
1530190
1530316
1530443
1530570
1530692
1530809
1530930
1531051
1531175
1531302
1531427
1531549
1531672
1531795
1531922
1532051
1532176
1532304
1532430
1532556
1532683
1532810
1532936
1533055
1533174
1533295
1533418
1533544
1533669
1533794
1533919
1534043
1534166
1534286
1534408
1534534
1534662
1534782
1534910
1535044
1535180
1535313
1535441
1535565
1535692
1535818
1535945
1536070
1536191
1536311
1536431
1536554
1536678
1536803
1536927
1537053
1537179
1537302
1537425
1537548
1537669
1537791
1537912
1538034
1538152
1538276
1538401
1538526
1538648
1538767
1538887
1539006
1539122
1539238
1539357
1539474
1539591
1539716
1539839
1539963
1540090
1540215
1540338
1540466
1540594
1540719
1540846
1540975
1541104
1541230
1541358
1541488
1541619
1541747
1541875
1542003
1542125
1542248
1542373
1542497
1542620
1542745
1542863
1542984
1543108
1543231
1543354
1543472
1543587
1543697
1543807
1543916
1544023
1544135
1544248
1544363
1544477
1544592
1544709
1544821
1544927
1545039
1545146
1545251
1545356
1545463
1545567
1545670
1545773
1545879
1545986
1546092
1546197
1546303
1546407
1546509
1546611
1546716
1546827
1546940
1547055
1547176
1547302
1547425
1547544
1547656
1547767
1547877
1547988
1548105
1548219
1548338
1548459
1548580
1548701
1548819
1548937
1549054
1549167
1549282
1549398
1549518
1549639
1549760
1549882
1550003
1550124
1550246
1550368
1550487
1550604
1550716
1550827
1550941
1551065
1551194
1551324
1551452
1551578
1551697
1551810
1551921
1552032
1552142
1552252
1552360
1552476
1552593
1552709
1552828
1552947
1553065
1553182
1553301
1553422
1553542
1553657
1553774
1553890
1554005
1554120
1554236
1554355
1554475
1554595
1554715
1554834
1554957
1555081
1555206
1555330
1555452
1555572
1555692
1555814
1555933
1556051
1556165
1556279
1556395
1556505
1556616
1556726
1556830
1556930
1557031
1557127
1557223
1557319
1557413
1557506
1557598
1557688
1557783
1557871
1557964
1558059
1558155
1558253
1558352
1558453
1558557
1558665
1558772
1558884
1558999
1559114
1559227
1559343
1559458
1559574
1559692
1559807
1559922
1560036
1560143
1560250
1560355
1560462
1560573
1560687
1560802
1560917
1561031
1561140
1561247
1561351
1561449
1561546
1561639
1561732
1561825
1561923
1562024
1562125
1562229
1562330
1562433
1562538
1562644
1562750
1562855
1562958
1563062
1563167
1563276
1563385
1563498
1563612
1563726
1563840
1563953
1564067
1564183
1564301
1564421
1564542
1564662
1564778
1564896
1565013
1565129
1565245
1565359
1565473
1565590
1565705
1565823
1565944
1566063
1566179
1566296
1566412
1566528
1566643
1566758
1566874
1566989
1567104
1567213
1567322
1567435
1567549
1567663
1567774
1567884
1567989
1568088
1568186
1568284
1568382
1568482
1568585
1568687
1568788
1568887
1568988
1569092
1569196
1569301
1569404
1569507
1569609
1569711
1569815
1569915
1570015
1570113
1570209
1570305
1570400
1570496
1570592
1570691
1570791
1570887
1570982
1571076
1571169
1571264
1571354
1571443
1571533
1571622
1571708
1571798
1571887
1571974
1572071
1572163
1572251
1572342
1572436
1572537
1572645
1572758
1572876
1572994
1573112
1573230
1573339
1573447
1573560
1573679
1573804
1573932
1574058
1574181
1574304
1574424
1574544
1574666
1574787
1574908
1575018
1575135
1575249
1575360
1575468
1575572
1575675
1575779
1575886
1575989
1576099
1576207
1576322
1576438
1576555
1576668
1576784
1576899
1577021
1577149
1577281
1577407
1577537
1577669
1577804
1577933
1578066
1578192
1578324
1578456
1578592
1578731
1578872
1579002
1579135
1579266
1579389
1579522
1579655
1579789
1579920
1580041
1580165
1580287
1580416
1580550
1580684
1580822
1580959
1581089
1581223
1581356
1581489
1581619
1581747
1581878
1582007
1582137
1582264
1582392
1582519
1582641
1582764
1582881
1583005
1583136
1583271
1583401
1583531
1583662
1583784
1583910
1584036
1584165
1584293
1584426
1584560
1584688
1584817
1584943
1585069
1585195
1585322
1585449
1585583
1585712
1585845
1585978
1586105
1586232
1586353
1586483
1586618
1586760
1586904
1587041
1587177
1587311
1587442
1587572
1587702
1587835
1587967
1588097
1588220
1588346
1588470
1588596
1588722
1588850
1588982
1589114
1589244
1589371
1589489
1589611
1589733
1589855
1589982
1590106
1590222
1590340
1590458
1590583
1590711
1590843
1590980
1591117
1591248
1591379
1591509
1591638
1591757
1591876
1591996
1592118
1592245
1592375
1592502
1592630
1592758
1592885
1593011
1593126
1593244
1593363
1593486
1593614
1593750
1593887
1594019
1594144
1594266
1594384
1594499
1594621
1594746
1594874
1595000
1595126
1595250
1595370
1595482
1595595
1595712
1595836
1595968
1596103
1596240
1596377
1596509
1596639
1596761
1596884
1597004
1597125
1597254
1597387
1597524
1597658
1597782
1597907
1598033
1598162
1598295
1598427
1598559
1598696
1598833
1598964
1599093
1599217
1599346
1599476
1599608
1599739
1599868
1599995
1600123
1600252
1600372
1600496
1600627
1600757
1600893
1601031
1601166
1601295
1601427
1601550
1601673
1601797
1601920
1602048
1602174
1602303
1602433
1602554
1602681
1602811
1602942
1603067
1603199
1603333
1603464
1603594
1603727
1603857
1603986
1604112
1604235
1604363
1604492
1604624
1604756
1604890
1605016
1605147
1605276
1605399
1605528
1605652
1605769
1605893
1606022
1606158
1606294
1606427
1606558
1606687
1606808
1606935
1607061
1607189
1607321
1607450
1607582
1607713
1607842
1607967
1608097
1608226
1608356
1608483
1608614
1608743
1608870
1608995
1609122
1609248
1609379
1609496
1609616
1609743
1609875
1610009
1610143
1610276
1610408
1610540
1610669
1610789
1610911
1611037
1611161
1611292
1611425
1611554
1611681
1611807
1611933
1612058
1612180
1612304
1612428
1612554
1612681
1612809
1612935
1613054
1613177
1613299
1613412
1613526
1613640
1613757
1613877
1613995
1614111
1614226
1614343
1614462
1614580
1614699
1614817
1614934
1615050
1615167
1615283
1615401
1615517
1615640
1615768
1615900
1616029
1616157
1616287
1616414
1616542
1616664
1616790
1616918
1617046
1617177
1617306
1617436
1617564
1617689
1617817
1617945
1618070
1618193
1618319
1618445
1618567
1618690
1618821
1618954
1619091
1619225
1619360
1619484
1619609
1619735
1619863
1619994
1620127
1620260
1620394
1620526
1620656
1620783
1620905
1621026
1621151
1621274
1621401
1621532
1621665
1621796
1621919
1622041
1622165
1622289
1622415
1622541
1622672
1622806
1622941
1623073
1623205
1623332
1623455
1623570
1623684
1623800
1623913
1624033
1624160
1624290
1624419
1624548
1624674
1624794
1624911
1625030
1625154
1625289
1625426
1625568
1625706
1625838
1625964
1626091
1626229
1626368
1626506
1626639
1626768
1626893
1627019
1627143
1627259
1627375
1627491
1627609
1627729
1627853
1627986
1628121
1628250
1628380
1628512
1628641
1628765
1628891
1629018
1629149
1629274
1629404
1629539
1629673
1629811
1629947
1630080
1630210
1630337
1630461
1630588
1630716
1630842
1630974
1631102
1631236
1631372
1631509
1631645
1631779
1631908
1632031
1632153
1632276
1632396
1632516
1632637
1632763
1632890
1633019
1633151
1633285
1633412
1633541
1633667
1633788
1633913
1634039
1634162
1634286
1634411
1634536
1634662
1634790
1634919
1635038
1635160
1635283
1635408
1635533
1635659
1635783
1635905
1636026
1636143
1636262
1636383
1636510
1636631
1636755
1636879
1636995
1637113
1637231
1637355
1637483
1637612
1637744
1637871
1637997
1638111
1638225
1638337
1638450
1638560
1638667
1638775
1638886
1639001
1639118
1639233
1639346
1639460
1639573
1639683
1639794
1639911
1640029
1640159
1640291
1640424
1640556
1640684
1640811
1640931
1641050
1641172
1641298
1641432
1641567
1641701
1641832
1641961
1642088
1642213
1642338
1642463
1642589
1642717
1642846
1642972
1643097
1643223
1643348
1643467
1643591
1643709
1643828
1643947
1644065
1644174
1644284
1644398
1644520
1644647
1644773
1644895
1645016
1645138
1645261
1645384
1645506
1645629
1645752
1645875
1645991
1646112
1646236
1646361
1646486
1646604
1646720
1646835
1646944
1647058
1647177
1647299
1647423
1647546
1647672
1647793
1647917
1648041
1648168
1648297
1648419
1648541
1648668
1648800
1648934
1649067
1649198
1649325
1649446
1649565
1649683
1649805
1649933
1650065
1650201
1650331
1650461
1650591
1650722
1650853
1650984
1651110
1651241
1651375
1651508
1651633
1651761
1651892
1652024
1652158
1652292
1652418
1652547
1652676
1652796
1652920
1653044
1653170
1653294
1653420
1653538
1653661
1653791
1653916
1654052
1654187
1654322
1654455
1654584
1654713
1654839
1654965
1655094
1655231
1655368
1655503
1655637
1655769
1655898
1656019
1656140
1656258
1656372
1656483
1656590
1656690
1656786
1656883
1656976
1657067
1657156
1657247
1657335
1657422
1657510
1657599
1657693
1657795
1657904
1658015
1658129
1658250
1658374
1658496
1658617
1658739
1658861
1658981
1659098
1659213
1659329
1659446
1659563
1659678
1659793
1659911
1660030
1660146
1660264
1660380
1660499
1660616
1660734
1660853
1660973
1661094
1661217
1661341
1661464
1661585
1661701
1661811
1661922
1662033
1662147
1662258
1662373
1662487
1662604
1662719
1662833
1662944
1663054
1663163
1663272
1663385
1663500
1663613
1663729
1663848
1663968
1664085
1664201
1664316
1664430
1664544
1664654
1664770
1664882
1664997
1665112
1665222
1665326
1665433
1665539
1665642
1665744
1665846
1665950
1666059
1666170
1666283
1666396
1666510
1666628
1666748
1666867
1666985
1667097
1667210
1667316
1667423
1667533
1667645
1667759
1667877
1667995
1668115
1668236
1668357
1668478
1668599
1668718
1668838
1668961
1669082
1669199
1669316
1669430
1669548
1669665
1669781
1669899
1670014
1670130
1670240
1670350
1670459
1670568
1670673
1670775
1670874
1670975
1671080
1671191
1671308
1671426
1671546
1671665
1671780
1671895
1672014
1672134
1672250
1672370
1672493
1672618
1672743
1672861
1672981
1673103
1673231
1673357
1673493
1673634
1673769
1673907
1674041
1674180
1674318
1674442
1674583
1674730
1674863
1675001
1675141
1675275
1675402
1675532
1675661
1675783
1675907
1676028
1676146
1676258
1676368
1676472
1676575
1676678
1676780
1676887
1676998
1677109
1677222
1677337
1677452
1677560
1677670
1677781
1677895
1678012
1678131
1678248
1678363
1678482
1678603
1678727
1678851
1678972
1679096
1679225
1679355
1679485
1679612
1679736
1679854
1679974
1680092
1680216
1680329
1680447
1680564
1680684
1680808
1680926
1681048
1681173
1681301
1681426
1681559
1681689
1681825
1681961
1682086
1682217
1682350
1682485
1682620
1682754
1682881
1683001
1683124
1683252
1683386
1683526
1683668
1683801
1683937
1684075
1684209
1684340
1684470
1684600
1684735
1684870
1685001
1685134
1685258
1685380
1685503
1685626
1685747
1685869
1685994
1686120
1686245
1686371
1686489
1686610
1686731
1686850
1686969
1687093
1687220
1687353
1687486
1687619
1687747
1687876
1688007
1688143
1688277
1688410
1688538
1688663
1688788
1688913
1689039
1689163
1689289
1689415
1689538
1689664
1689792
1689919
1690036
1690156
1690275
1690394
1690508
1690626
1690736
1690852
1690974
1691098
1691224
1691342
1691464
1691587
1691710
1691835
1691958
1692073
1692189
1692307
1692428
1692552
1692679
1692799
1692921
1693041
1693161
1693279
1693394
1693503
1693609
1693721
1693836
1693957
1694081
1694200
1694324
1694448
1694572
1694692
1694815
1694941
1695063
1695190
1695318
1695446
1695572
1695695
1695815
1695940
1696069
1696205
1696341
1696475
1696606
1696735
1696858
1696979
1697103
1697230
1697362
1697493
1697623
1697741
1697871
1698000
1698131
1698261
1698391
1698521
1698651
1698781
1698914
1699045
1699172
1699300
1699428
1699559
1699690
1699820
1699949
1700069
1700189
1700309
1700430
1700555
1700685
1700817
1700949
1701083
1701217
1701347
1701477
1701606
1701736
1701867
1701997
1702122
1702253
1702384
1702511
1702634
1702757
1702879
1703001
1703118
1703242
1703370
1703497
1703625
1703741
1703861
1703981
1704101
1704226
1704348
1704474
1704600
1704725
1704851
1704977
1705105
1705231
1705350
1705471
1705587
1705708
1705823
1705943
1706066
1706192
1706317
1706446
1706572
1706699
1706823
1706945
1707065
1707184
1707304
1707423
1707541
1707663
1707789
1707917
1708042
1708168
1708294
1708417
1708540
1708663
1708784
1708910
1709038
1709160
1709289
1709418
1709541
1709665
1709782
1709898
1710001
1710106
1710210
1710313
1710416
1710518
1710626
1710735
1710848
1710964
1711080
1711199
1711318
1711442
1711568
1711690
1711810
1711930
1712045
1712162
1712276
1712390
1712501
1712616
1712734
1712854
1712977
1713100
1713217
1713337
1713458
1713582
1713703
1713820
1713936
1714055
1714175
1714298
1714424
1714550
1714677
1714805
1714933
1715064
1715195
1715327
1715457
1715588
1715716
1715845
1715970
1716094
1716221
1716345
1716471
1716600
1716725
1716849
1716977
1717106
1717232
1717363
1717490
1717607
1717723
1717839
1717956
1718066
1718178
1718286
1718390
1718494
1718597
1718702
1718810
1718926
1719044
1719164
1719286
1719408
1719539
1719669
1719802
1719934
1720061
1720183
1720305
1720432
1720561
1720686
1720810
1720934
1721059
1721178
1721296
1721416
1721541
1721669
1721798
1721928
1722061
1722191
1722324
1722457
1722585
1722714
1722844
1722965
1723081
1723193
1723304
1723409
1723509
1723607
1723702
1723793
1723884
1723971
1724058
1724144
1724229
1724316
1724405
1724496
1724591
1724692
1724803
1724917
1725030
1725143
1725262
1725382
1725499
1725614
1725729
1725844
1725957
1726073
1726190
1726306
1726423
1726541
1726658
1726771
1726885
1726999
1727112
1727226
1727339
1727451
1727561
1727675
1727784
1727893
1727996
1728104
1728217
1728333
1728453
1728575
1728694
1728817
1728943
1729077
1729208
1729341
1729483
1729618
1729755
1729891
1730028
1730160
1730285
1730411
1730539
1730665
1730793
1730929
1731056
1731189
1731317
1731453
1731586
1731713
1731846
1731980
1732112
1732239
1732369
1732497
1732630
1732764
1732893
1733026
1733161
1733289
1733422
1733553
1733675
1733802
1733923
1734043
1734159
1734273
1734387
1734496
1734604
1734713
1734820
1734927
1735033
1735141
1735245
1735354
1735469
1735581
1735691
1735802
1735915
1736026
1736141
1736258
1736374
1736493
1736612
1736733
1736846
1736959
1737072
1737186
1737302
1737420
1737543
1737661
1737782
1737901
1738020
1738131
1738244
1738361
1738482
1738605
1738729
1738853
1738975
1739093
1739212
1739332
1739455
1739579
1739704
1739831
1739956
1740077
1740198
1740316
1740431
1740545
1740656
1740763
1740869
1740979
1741093
1741213
1741326
1741449
1741571
1741691
1741811
1741930
1742051
1742171
1742289
1742403
1742515
1742628
1742741
1742856
1742970
1743086
1743204
1743324
1743447
1743568
1743688
1743803
1743921
1744035
1744150
1744267
1744380
1744498
1744613
1744732
1744852
1744970
1745089
1745208
1745325
1745445
1745568
1745692
1745815
1745937
1746060
1746182
1746302
1746420
1746540
1746660
1746779
1746900
1747019
1747140
1747261
1747382
